t;vds;corrente;vg
0.000499;0.0209762;0.00388964;-0.0330846
0.000998;0.0214014;0.00407355;-0.0317643
0.001497;0.0219392;0.00413151;-0.0317643
0.001996;0.0222986;0.00409425;-0.0317643
0.002495;0.0227801;0.00408183;-0.0318598
0.002994;0.0233259;0.00415635;-0.0317643
0.003493;0.0238381;0.00438819;-0.0322417
0.003992;0.0242515;0.00440061;-0.0319552
0.004491;0.0248112;0.00513334;-0.0319552
0.00499;0.0252405;0.00529894;-0.0317643
0.005489;0.0256925;0.00582055;-0.0317643
0.005988;0.0262135;0.00619726;-0.0317643
0.006487;0.0267554;0.00614758;-0.0320826
0.006986;0.0272399;0.00616414;-0.0317643
0.007485;0.027749;0.00630075;-0.0317643
0.007984;0.0281399;0.00659053;-0.0317643
0.008483;0.028581;0.00668575;-0.0317643
0.008982;0.0290981;0.00753855;-0.0317643
0.009481;0.0296558;0.00761306;-0.0317643
0.00998;0.0301324;0.00799807;-0.0317643
0.010479;0.0305834;0.00815125;-0.0317643
0.010978;0.0311588;0.00826302;-0.0317643
0.011477;0.0316789;0.00828372;-0.0317643
0.011976;0.0321526;0.00833754;-0.0317643
0.012475;0.0325995;0.00844517;-0.0317643
0.012974;0.0330881;0.0088219;-0.0317643
0.013473;0.0335293;0.00949258;-0.0317643
0.013972;0.033987;0.00929795;-0.0317643
0.014471;0.0345606;0.00977403;-0.0317643
0.01497;0.0350224;0.00999345;-0.0317643
0.015469;0.0354614;0.0102915;-0.0317643
0.015968;0.0360468;0.0107759;-0.0317643
0.016467;0.0365916;0.0107676;-0.0317643
0.016966;0.037091;0.0106848;-0.0317643
0.017465;0.0375823;0.011372;-0.0317643
0.017964;0.0380513;0.0109166;-0.0319871
0.018463;0.038518;0.011579;-0.0317643
0.018962;0.0389087;0.0122455;-0.0318279
0.019461;0.0394437;0.0123448;-0.0319552
0.01996;0.0399202;0.0125146;-0.0317643
0.020459;0.0404128;0.0124442;-0.0322735
0.020958;0.0409554;0.0132804;-0.0317643
0.021457;0.0414035;0.0132349;-0.0319552
0.021956;0.0418133;0.0136861;-0.0317643
0.022455;0.0422691;0.0140256;-0.0317643
0.022954;0.0429007;0.014245;-0.0317643
0.023453;0.0433191;0.0143734;-0.0328464
0.023952;0.0437957;0.0146549;-0.0322099
0.024451;0.0443463;0.0150813;-0.0317643
0.02495;0.0447885;0.0152593;-0.0317643
0.025449;0.0452674;0.0161824;-0.0317643
0.025948;0.0456937;0.0161493;-0.0317643
0.026447;0.0462538;0.0164764;-0.0317643
0.026946;0.0466489;0.0167869;-0.0317643
0.027445;0.0471582;0.0170021;-0.0317643
0.027944;0.047604;0.0169524;-0.0317643
0.028443;0.0480363;0.0169524;-0.0317643
0.028942;0.0481121;0.0180495;-0.0317643
0.029441;0.0476841;0.017797;-0.0317643
0.02994;0.0472193;0.0169359;-0.0317643
0.030439;0.046707;0.0168531;-0.0317643
0.030938;0.0462776;0.0168324;-0.0317643
0.031437;0.0457638;0.0165923;-0.0317643
0.031936;0.045292;0.0164143;-0.0317643
0.032435;0.0448062;0.0161038;-0.0317643
0.032934;0.0443591;0.0157395;-0.0317643
0.033433;0.0438411;0.0150233;-0.0317643
0.033932;0.0434177;0.0147915;-0.0317643
0.034431;0.0429391;0.0145141;-0.0317643
0.03493;0.0424448;0.0143816;-0.0317643
0.035429;0.0419356;0.0138186;-0.0317643
0.035928;0.0414458;0.013148;-0.0317643
0.036427;0.0410333;0.0129161;-0.0317643
0.036926;0.0404781;0.0125146;-0.0317643
0.037425;0.040013;0.0125021;-0.0317643
0.037924;0.0394831;0.0124318;-0.0317643
0.038423;0.0391091;0.0123945;-0.0317643
0.038922;0.0385456;0.0121378;-0.0317643
0.039421;0.0381173;0.0120095;-0.0317643
0.03992;0.0376101;0.0109746;-0.0317643
0.040419;0.0370752;0.011223;-0.0317643
0.040918;0.0365954;0.0106227;-0.0317643
0.041417;0.0361375;0.0104612;-0.0317643
0.041916;0.035571;0.0104571;-0.0317643
0.042415;0.0350904;0.010275;-0.0317643
0.042914;0.0346978;0.0102956;-0.0317643
0.043413;0.0341855;0.00957123;-0.0317643
0.043912;0.0336122;0.00911583;-0.0317643
0.044411;0.0331935;0.00919451;-0.0317643
0.04491;0.0327703;0.0085404;-0.0317643
0.045409;0.0323007;0.00842034;-0.0321144
0.045908;0.031813;0.00826302;-0.0317643
0.046407;0.0312674;0.00826302;-0.0317643
0.046906;0.0306879;0.00800634;-0.0317643
0.047405;0.030165;0.00798151;-0.0317643
0.047904;0.0296934;0.00752613;-0.0317643
0.048403;0.0291898;0.00734812;-0.0317643
0.048902;0.0287261;0.00741021;-0.0317643
0.049401;0.0282829;0.00673956;-0.0317643
0.0499;0.027833;0.00648704;-0.0321144
0.050399;0.0272598;0.00619726;-0.0317643
0.050898;0.0267681;0.00620139;-0.0318916
0.051397;0.0262836;0.00616;-0.0317643
0.051896;0.0257733;0.00602753;-0.0317643
0.052395;0.025282;0.00592818;-0.0317643
0.052894;0.0248742;0.00520789;-0.0317643
0.053393;0.0243453;0.00468213;-0.0317643
0.053892;0.0237957;0.00445442;-0.0317643
0.054391;0.0233682;0.00438818;-0.0317643
0.05489;0.0228759;0.00423087;-0.0317643
0.055389;0.0223863;0.0039121;-0.0324327
0.055888;0.0219906;0.00402801;-0.0318916
0.056387;0.021589;0.00401973;-0.0317643
0.056886;0.0210096;0.00333255;-0.0317643
0.057385;0.0204857;0.00303447;-0.032369
0.057884;0.0200218;0.00250045;-0.0327509
0.058383;0.0195008;0.00217339;-0.0318916
0.058882;0.0190468;0.00215269;-0.0317643
0.059381;0.0186056;0.00207818;-0.0324008
0.05988;0.0180845;0.0020285;-0.0317643
0.060379;0.0176029;0.00204506;-0.0319234
0.060878;0.0171737;0.00181737;-0.0320189
0.061377;0.0167484;0.000956292;-0.0317643
0.061876;0.0162756;0.00160624;-0.0317643
0.062375;0.0158176;0.00099355;-0.0317643
0.062874;0.015412;0.000190431;-0.0317643
0.063373;0.014828;1.24194e-05;-0.0321144
0.063872;0.0142585;-0.000447099;-0.0327191
0.064371;0.0137996;-0.000658228;-0.0317643
0.06487;0.013388;-0.00114258;-0.0317643
0.065369;0.0128205;-0.00203264;-0.0317643
0.065868;0.012329;-0.00190016;-0.0317643
0.066367;0.0119117;-0.00203264;-0.0317643
0.066866;0.0113916;-0.00216511;-0.0317643
0.067365;0.0109297;-0.00206576;-0.0317643
0.067864;0.0104244;-0.00268259;-0.0317643
0.068363;0.00998328;-0.00233485;-0.0317643
0.068862;0.00941189;-0.0025791;-0.0317643
0.069361;0.00894307;-0.00370512;-0.0317643
0.06986;0.00848521;-0.0039949;-0.0317643
0.070359;0.00787528;-0.00406941;-0.0317643
0.070858;0.00741151;-0.004235;-0.0317643
0.071357;0.0069585;-0.00428883;-0.0317643
0.071856;0.00650057;-0.00419361;-0.0317643
0.072355;0.0059588;-0.00443786;-0.0317643
0.072854;0.00550087;-0.00453308;-0.0317643
0.073353;0.0050025;-0.00486427;-0.0317643
0.073852;0.0044518;-0.00518302;-0.0317643
0.074351;0.00394454;-0.00585367;-0.0317643
0.07485;0.00344521;-0.0060565;-0.0317643
0.075349;0.00297248;-0.00619726;-0.0317643
0.075848;0.00247806;-0.00619726;-0.0317643
0.076347;0.00199645;-0.00633801;-0.0317643
0.076846;0.00150697;-0.0064001;-0.0317643
0.077345;0.00108359;-0.00654913;-0.0317643
0.077844;0.000632588;-0.00705005;-0.0317643
0.078343;0.000226982;-0.00780351;-0.0317643
0.078842;-0.000352315;-0.00758823;-0.0317643
0.079341;-0.000901018;-0.00799806;-0.0317643
0.07984;-0.00140335;-0.00827958;-0.0317643
0.080339;-0.00189579;-0.00826302;-0.0321462
0.080838;-0.00231621;-0.00847002;-0.0318916
0.081337;-0.00276524;-0.00827958;-0.0317643
0.081836;-0.00318269;-0.00877638;-0.0317643
0.082335;-0.00371757;-0.00919035;-0.0317643
0.082834;-0.00417546;-0.00887572;-0.0317643
0.083333;-0.00471136;-0.00911583;-0.0317643
0.083832;-0.00529363;-0.0101011;-0.0324963
0.084331;-0.00578214;-0.010159;-0.0317643
0.08483;-0.00624595;-0.0103081;-0.0317643
0.085329;-0.00680751;-0.0103702;-0.0317643
0.085828;-0.00734144;-0.0106434;-0.0317643
0.086327;-0.00782889;-0.0106682;-0.0317643
0.086826;-0.00824738;-0.010929;-0.0317643
0.087325;-0.00881379;-0.0119226;-0.0317643
0.087824;-0.00918885;-0.0123159;-0.0317643
0.088323;-0.00971089;-0.0123862;-0.0317643
0.088822;-0.0102023;-0.0124442;-0.0317643
0.089321;-0.0106336;-0.0124359;-0.0317643
0.08982;-0.0111765;-0.012527;-0.0317643
0.090319;-0.0116946;-0.0124897;-0.0317643
0.090818;-0.0121859;-0.0128747;-0.0317643
0.091317;-0.012633;-0.013533;-0.0317643
0.091816;-0.0132094;-0.0143154;-0.0317643
0.092315;-0.0137216;-0.0139635;-0.0317643
0.092814;-0.0142052;-0.0144479;-0.0317643
0.093313;-0.0146148;-0.0144976;-0.0317643
0.093812;-0.0151377;-0.0146838;-0.0317643
0.094311;-0.0155216;-0.0146921;-0.0317643
0.09481;-0.0160062;-0.0155739;-0.0317643
0.095309;-0.016479;-0.0160583;-0.0317643
0.095808;-0.0169527;-0.0164019;-0.0317643
0.096307;-0.0174253;-0.016526;-0.0317643
0.096806;-0.017894;-0.016526;-0.0317643
0.097305;-0.0184616;-0.016526;-0.0317643
0.097804;-0.0188395;-0.0165509;-0.0317643
0.098303;-0.019329;-0.0169731;-0.0317643
0.098802;-0.0198709;-0.0171926;-0.0317643
0.099301;-0.0203011;-0.0169566;-0.0317643
0.0998;-0.0207768;-0.0182648;-0.0317643
0.100299;-0.0212318;-0.0180536;-0.0317643
0.100798;-0.0217172;-0.0185918;-0.0317643
0.101297;-0.0221811;-0.0185297;-0.0317643
0.101796;-0.0227269;-0.0186291;-0.0317643
0.102295;-0.0232054;-0.0186622;-0.0317643
0.102794;-0.0237078;-0.0187657;-0.0317643
0.103293;-0.0241272;-0.0194819;-0.0317643
0.103792;-0.0246472;-0.0200448;-0.0317643
0.104291;-0.0250826;-0.0200159;-0.0317643
0.10479;-0.0256125;-0.0202477;-0.0317643
0.105289;-0.0260626;-0.0202767;-0.0317643
0.105788;-0.026547;-0.0204795;-0.0317643
0.106287;-0.0270673;-0.0206575;-0.0317643
0.106786;-0.027536;-0.0206782;-0.0317643
0.107285;-0.0280164;-0.0208935;-0.0317643
0.107784;-0.0284311;-0.0209018;-0.0317643
0.108283;-0.0289273;-0.0214234;-0.0317643
0.108782;-0.0295414;-0.0222763;-0.0317643
0.109281;-0.0299538;-0.0224626;-0.0317643
0.10978;-0.0304422;-0.0227027;-0.0317643
0.110279;-0.030855;-0.0226944;-0.0317643
0.110778;-0.0314172;-0.0231664;-0.0317643
0.111277;-0.0319287;-0.0232864;-0.0317643
0.111776;-0.0324594;-0.0231912;-0.0317643
0.112275;-0.0329439;-0.0235099;-0.0317643
0.112774;-0.033403;-0.0236382;-0.0316688
0.113273;-0.0338568;-0.0240191;-0.0317643
0.113772;-0.0343899;-0.0246897;-0.0317643
0.114271;-0.0347885;-0.0246855;-0.0317643
0.11477;-0.0352236;-0.02476;-0.0317643
0.115269;-0.0357655;-0.0247725;-0.0317643
0.115768;-0.0363496;-0.0249008;-0.0317643
0.116267;-0.0368177;-0.0254432;-0.0317643
0.116766;-0.0373229;-0.0250002;-0.0317643
0.117265;-0.0377216;-0.0252776;-0.0317643
0.117764;-0.0382703;-0.0262464;-0.0317643
0.118263;-0.0386877;-0.0265942;-0.0317643
0.118762;-0.0392729;-0.0270206;-0.0317643
0.119261;-0.039712;-0.0268301;-0.0317643
0.11976;-0.0401444;-0.0275049;-0.0317643
0.120259;-0.0406622;-0.0278112;-0.0317325
0.120758;-0.0411221;-0.0285273;-0.0317643
0.121257;-0.0415951;-0.0289703;-0.0317643
0.121756;-0.0421587;-0.0289868;-0.0317643
0.122255;-0.0428188;-0.0290199;-0.0317643
0.122754;-0.0432806;-0.0292436;-0.0317643
0.123253;-0.0437425;-0.0292973;-0.0317643
0.123752;-0.0442378;-0.0297941;-0.0317643
0.124251;-0.0447263;-0.0305228;-0.0319234
0.12475;-0.0452062;-0.0304276;-0.0317643
0.125249;-0.0457065;-0.0308581;-0.0317643
0.125748;-0.0461433;-0.0309865;-0.0317643
0.126247;-0.0465955;-0.0310237;-0.0317643
0.126746;-0.0470014;-0.031061;-0.0317643
0.127245;-0.047527;-0.03121;-0.0317643
0.127744;-0.0479594;-0.0319634;-0.0320189
0.128243;-0.0485103;-0.0324767;-0.0317643
0.128742;-0.0488784;-0.0326754;-0.0317643
0.129241;-0.0484864;-0.0318723;-0.0317643
0.12974;-0.0480135;-0.0315329;-0.0317643
0.130239;-0.0475787;-0.031119;-0.0317643
0.130738;-0.0471136;-0.0310237;-0.0317643
0.131237;-0.0465865;-0.0309948;-0.0317643
0.131736;-0.0460943;-0.030883;-0.0317643
0.132235;-0.0456888;-0.0307008;-0.0317643
0.132734;-0.0450697;-0.0302453;-0.0317643
0.133233;-0.0446393;-0.0301792;-0.0317643
0.133732;-0.0441561;-0.0297444;-0.0317643
0.134231;-0.043692;-0.0298604;-0.0320189
0.13473;-0.0432085;-0.0295043;-0.0317643
0.135229;-0.0426788;-0.0288792;-0.0317643
0.135728;-0.0421398;-0.0285563;-0.0317643
0.136227;-0.041667;-0.0286557;-0.0317643
0.136726;-0.0411359;-0.0281217;-0.0317643
0.137225;-0.0406725;-0.0280928;-0.0317643
0.137724;-0.0401038;-0.0278485;-0.0317643
0.138223;-0.0396942;-0.0276746;-0.0317643
0.138722;-0.039191;-0.0268964;-0.0317643
0.139221;-0.0387419;-0.026855;-0.0317643
0.13972;-0.0381913;-0.0268177;-0.0317643
0.140219;-0.0377523;-0.0267805;-0.0317643
0.140718;-0.037238;-0.0258033;-0.0317643
0.141217;-0.0367168;-0.0255384;-0.0317643
0.141716;-0.0362382;-0.0252651;-0.0317643
0.142215;-0.0358751;-0.024996;-0.0317643
0.142714;-0.0353322;-0.0248056;-0.0317643
0.143213;-0.0348517;-0.0247352;-0.0317643
0.143712;-0.0344115;-0.0238866;-0.0317643
0.144211;-0.0339071;-0.0242302;-0.0317643
0.14471;-0.0334187;-0.023332;-0.0317643
0.145209;-0.0329557;-0.0230546;-0.0317643
0.145708;-0.0324112;-0.02286;-0.0317643
0.146207;-0.0318663;-0.0227069;-0.0317643
0.146706;-0.0313699;-0.0225909;-0.0317643
0.147205;-0.0308814;-0.0226282;-0.0322735
0.147704;-0.0304314;-0.0223798;-0.0317643
0.148203;-0.0299756;-0.0222887;-0.0317643
0.148702;-0.0295651;-0.0222515;-0.0317643
0.149201;-0.0290616;-0.0214855;-0.0315097
0.1497;-0.0284961;-0.0218002;-0.0317643
0.150199;-0.0280145;-0.0219575;-0.0317643
0.150698;-0.0275133;-0.0214897;-0.0317643
0.151197;-0.0270515;-0.0208272;-0.0317643
0.151696;-0.026477;-0.0202229;-0.0317643
0.152195;-0.0260111;-0.0201566;-0.0317643
0.152694;-0.0254586;-0.0199;-0.0317643
0.153193;-0.0250065;-0.0197551;-0.0317643
0.153692;-0.0245268;-0.0188982;-0.0317643
0.154191;-0.0240927;-0.0185256;-0.0317643
0.15469;-0.023545;-0.0188237;-0.0317643
0.155189;-0.0231274;-0.0186125;-0.0317643
0.155688;-0.022722;-0.0184883;-0.0317643
0.156187;-0.0221209;-0.017975;-0.0317643
0.156686;-0.0216532;-0.0180288;-0.0317643
0.157185;-0.021218;-0.0172671;-0.0318279
0.157684;-0.0207343;-0.0174492;-0.0317643
0.158183;-0.0202292;-0.0172588;-0.0318916
0.158682;-0.0197001;-0.0173044;-0.0317643
0.159181;-0.0192492;-0.0169442;-0.0317643
0.15968;-0.0187596;-0.0166295;-0.0317643
0.160179;-0.018272;-0.0165136;-0.0317643
0.160678;-0.017821;-0.0164846;-0.0317643
0.161177;-0.0173267;-0.0162859;-0.0317643
0.161676;-0.0168885;-0.0161617;-0.0317643
0.162175;-0.0164918;-0.0151682;-0.0317643
0.162674;-0.0159963;-0.0145845;-0.0317643
0.163173;-0.0154436;-0.0144437;-0.0317643
0.163672;-0.0150885;-0.0145886;-0.0317643
0.164171;-0.0145644;-0.0144272;-0.0317643
0.16467;-0.0140897;-0.0144147;-0.0317643
0.165169;-0.0135637;-0.0141871;-0.0317643
0.165668;-0.0130978;-0.0140173;-0.0317643
0.166167;-0.0125215;-0.0134088;-0.0317643
0.166666;-0.0120962;-0.0131935;-0.0317643
0.167165;-0.011585;-0.0125932;-0.0317643
0.167664;-0.0110965;-0.0124069;-0.0317643
0.168163;-0.0105902;-0.0124193;-0.0317643
0.168662;-0.0101441;-0.0127009;-0.0317643
0.169161;-0.00965372;-0.0123862;-0.0317643
0.16966;-0.00916118;-0.0117446;-0.0317643
0.170159;-0.00869144;-0.0114092;-0.0317643
0.170658;-0.00815063;-0.0108338;-0.0317643
0.171157;-0.00771347;-0.0105275;-0.0317643
0.171656;-0.00725951;-0.0104571;-0.0320507
0.172155;-0.00673149;-0.0103536;-0.0317643
0.172654;-0.00613546;-0.010366;-0.0317643
0.173153;-0.00560745;-0.0103288;-0.0317643
0.173652;-0.00520282;-0.0100142;-0.0317643
0.174151;-0.00468275;-0.00956711;-0.0317643
0.17465;-0.00417449;-0.00964161;-0.0317643
0.175149;-0.0037531;-0.00871428;-0.0317643
0.175648;-0.00330212;-0.00861903;-0.0317643
0.176147;-0.00267543;-0.00838722;-0.0317643
0.176646;-0.00228858;-0.0083955;-0.0317643
0.177145;-0.00180599;-0.0082092;-0.0317643
0.177644;-0.00130959;-0.00817609;-0.0317643
0.178143;-0.000795422;-0.00760891;-0.0317643
0.178642;-0.000317774;-0.00725704;-0.0317643
0.179141;0.000157901;-0.00715355;-0.0317643
0.17964;0.00072338;-0.00647048;-0.0317643
0.180139;0.00104708;-0.00621381;-0.0317643
0.180638;0.0015119;-0.00624693;-0.0317643
0.181137;0.0020004;-0.00602754;-0.0318279
0.181636;0.00245536;-0.00590334;-0.0317643
0.182135;0.00291624;-0.00557215;-0.0317643
0.182634;0.0035281;-0.00482288;-0.0317643
0.183133;0.00401263;-0.00454136;-0.0317643
0.183632;0.00457714;-0.00413565;-0.0317643
0.184131;0.00506665;-0.00409839;-0.0317643
0.18463;0.00560055;-0.00409011;-0.0317643
0.185129;0.00597556;-0.00381275;-0.0317643
0.185628;0.00653414;-0.00384173;-0.0317643
0.186127;0.00704143;-0.00334496;-0.0317643
0.186626;0.00748155;-0.00377963;-0.0317643
0.187125;0.00798385;-0.0024756;-0.0317643
0.187624;0.00840922;-0.00264947;-0.0317643
0.188123;0.00895888;-0.00241351;-0.0317643
0.188622;0.00941086;-0.00247974;-0.0317643
0.189121;0.00997045;-0.00231001;-0.0317643
0.18962;0.0104806;-0.00207818;-0.0317643
0.190119;0.010983;-0.0020285;-0.0317643
0.190618;0.0114212;-0.00175113;-0.0317643
0.191117;0.0120251;-0.00184635;-0.0317643
0.191616;0.0125067;-0.00190844;-0.0317643
0.192115;0.0129113;-0.0014986;-0.0317643
0.192614;0.0133584;-0.000956292;-0.0317643
0.193113;0.0139585;-0.000505056;-0.0319871
0.193612;0.0143078;-6.2097e-05;-0.0317643
0.194111;0.0147618;-0.000194571;-0.0317643
0.19461;0.0153163;0.000178011;-0.0317643
0.195109;0.0157466;0.00041398;-0.0317643
0.195608;0.0162273;0.000670647;-0.0317643
0.196107;0.0166981;0.000840378;-0.0319552
0.196606;0.0172497;0.00170559;-0.0317643
0.197105;0.017668;0.0019043;-0.0317643
0.197604;0.0181181;0.00190016;-0.0317643
0.198103;0.0186817;0.00208646;-0.0317643
0.198602;0.0190438;0.00242592;-0.0317643
0.199101;0.0195294;0.00274469;-0.0317643
0.1996;0.0200782;0.00374237;-0.0317643
0.200099;0.0204935;0.00348157;-0.0317643
0.200598;0.020993;0.00365958;-0.0317643
0.201097;0.021508;0.00394936;-0.0317643
0.201596;0.0219945;0.00409839;-0.0317643
0.202095;0.0224684;0.00412323;-0.0318279
0.202594;0.0229448;0.00413151;-0.0317643
0.203093;0.023471;0.0042971;-0.0317643
0.203592;0.0239091;0.00478148;-0.0317643
0.204091;0.0243698;0.00462415;-0.0317643
0.20459;0.0248921;0.00529482;-0.0317643
0.205089;0.0253805;0.00546039;-0.0317643
0.205588;0.0258367;0.00611033;-0.0317643
0.206087;0.0263575;0.0060979;-0.0317643
0.206586;0.0268048;0.00623037;-0.0317643
0.207085;0.0272271;0.00627177;-0.0317643
0.207584;0.0277451;0.00739365;-0.0317643
0.208083;0.0283166;0.00677681;-0.0317643
0.208582;0.0287536;0.00698795;-0.0317643
0.209081;0.029189;0.00689274;-0.0317643
0.20958;0.0297515;0.00749716;-0.0317643
0.210079;0.0301965;0.00781177;-0.0317643
0.210578;0.0307987;0.00827958;-0.0317643
0.211077;0.031285;0.00827958;-0.0317643
0.211576;0.0318704;0.00870185;-0.0317643
0.212075;0.0323667;0.00924414;-0.0317643
0.212574;0.0327899;0.00984442;-0.0317643
0.213073;0.0332846;0.0102128;-0.0313823
0.213572;0.0336507;0.0102377;-0.0317643
0.214071;0.034146;0.0103288;-0.0317325
0.21457;0.0347194;0.0106351;-0.0317643
0.215069;0.0352019;0.010544;-0.0317643
0.215568;0.0357536;0.0108421;-0.0317643
0.216067;0.0362233;0.0106848;-0.0317643
0.216566;0.0367871;0.0112395;-0.0317643
0.217065;0.0372262;0.0116245;-0.0317643
0.217564;0.0377393;0.0121089;-0.0317643
0.218063;0.0382693;0.0121999;-0.0317643
0.218562;0.0387242;0.0123945;-0.0317643
0.219061;0.0390882;0.0124856;-0.0317643
0.21956;0.0395838;0.01244;-0.0317643
0.220059;0.0400516;0.0125891;-0.0317643
0.220558;0.0405133;0.0124566;-0.0317643
0.221057;0.0410255;0.0131935;-0.0317643
0.221556;0.0415565;0.0137027;-0.0317643
0.222055;0.0419772;0.0143568;-0.0317643
0.222554;0.0424683;0.0143651;-0.0317643
0.223053;0.0430152;0.0141581;-0.0317643
0.223552;0.0435283;0.0147004;-0.0317643
0.224051;0.0438983;0.0147252;-0.0317643
0.22455;0.0444668;0.0154373;-0.0317643
0.225049;0.0449109;0.0155821;-0.0317643
0.225548;0.0453405;0.0163936;-0.0317643
0.226047;0.0458593;0.016526;-0.0317643
0.226546;0.0462805;0.0164432;-0.0317643
0.227045;0.0467229;0.0165302;-0.0317643
0.227544;0.0471513;0.0167206;-0.0317643
0.228043;0.0477718;0.0173126;-0.0317643
0.228542;0.0481942;0.0176355;-0.0317643
0.229041;0.0480233;0.0174906;-0.0317643
0.22954;0.0476811;0.0172216;-0.0317643
0.230039;0.0471709;0.0167537;-0.0317643
0.230538;0.0466172;0.0165467;-0.0317643
0.231037;0.0462194;0.0163232;-0.0317643
0.231536;0.0457697;0.0161576;-0.0317643
0.232035;0.0452476;0.0155408;-0.0317643
0.232534;0.0447064;0.0150523;-0.0320826
0.233033;0.0442616;0.0147004;-0.0317643
0.233532;0.0438165;0.0145514;-0.0317643
0.234031;0.0433388;0.0144396;-0.0317643
0.23453;0.0428918;0.0137234;-0.0317643
0.235029;0.0424053;0.0136613;-0.0317643
0.235528;0.0418408;0.0134833;-0.0317643
0.236027;0.0414103;0.0131894;-0.0317643
0.236526;0.0408863;0.0128209;-0.0317643
0.237025;0.0403517;0.012498;-0.0317643
0.237524;0.0399221;0.0125642;-0.0317643
0.238023;0.039488;0.0124152;-0.0317643
0.238522;0.038959;0.0123945;-0.0317643
0.239021;0.0384232;0.01232;-0.0317643
0.23952;0.0380226;0.012171;-0.0317643
0.240019;0.0374857;0.0112519;-0.0317643
0.240518;0.037015;0.0112105;-0.0317643
0.241017;0.0365362;0.0104364;-0.0317643
0.241516;0.0360892;0.0106227;-0.0317643
0.242015;0.0355088;0.0102998;-0.0317643
