t;vds;corrente;vg
0.000499;-0.039412;-0.0284077;0.68703
0.000998;-0.0398413;-0.0288875;0.698816
0.001497;-0.040329;-0.0289827;0.698816
0.001996;-0.0408211;-0.0289868;0.698816
0.002495;-0.0412583;-0.0291028;0.698816
0.002994;-0.0418439;-0.0292394;0.698816
0.003493;-0.0423726;-0.0305021;0.698816
0.003992;-0.0428543;-0.0304773;0.698816
0.004491;-0.0433843;-0.0308416;0.698816
0.00499;-0.0438204;-0.0307588;0.698816
0.005489;-0.0442585;-0.0309037;0.698816
0.005988;-0.0447727;-0.0310651;0.698816
0.006487;-0.0453336;-0.0310486;0.698816
0.006986;-0.045815;-0.031181;0.698816
0.007485;-0.0462064;-0.0310155;0.699039
0.007984;-0.046791;-0.0311272;0.698816
0.008483;-0.0472341;-0.0318309;0.698816
0.008982;-0.0477204;-0.0320959;0.698816
0.009481;-0.0481202;-0.0323939;0.698816
0.00998;-0.0486663;-0.032663;0.698976
0.010479;-0.0488666;-0.0329776;0.698816
0.010978;-0.048441;-0.0329527;0.698816
0.011477;-0.0480253;-0.0327706;0.698816
0.011976;-0.0475352;-0.0322656;0.698816
0.012475;-0.0469509;-0.031388;0.698816
0.012974;-0.046545;-0.0314419;0.698816
0.013473;-0.046046;-0.0310196;0.698816
0.013972;-0.0455367;-0.0309865;0.698816
0.014471;-0.0450599;-0.0309782;0.69888
0.01497;-0.0446403;-0.0304689;0.699007
0.015469;-0.0440811;-0.0301957;0.698816
0.015968;-0.0435914;-0.0293429;0.698816
0.016467;-0.0431739;-0.0299391;0.698816
0.016966;-0.0426314;-0.0296616;0.698816
0.017465;-0.0421418;-0.0299307;0.698816
0.017964;-0.0416265;-0.0298605;0.698816
0.018463;-0.0411349;-0.0294091;0.698816
0.018962;-0.0405896;-0.0291028;0.698816
0.019461;-0.0401137;-0.0289868;0.698816
0.01996;-0.0396735;-0.0290075;0.698816
0.020459;-0.039194;-0.0287923;0.69888
0.020958;-0.0387429;-0.0282666;0.698816
0.021457;-0.0382989;-0.0277575;0.698848
0.021956;-0.0377237;-0.0272234;0.698912
0.022455;-0.0372281;-0.0269709;0.698816
0.022954;-0.0368314;-0.0268012;0.698816
0.023453;-0.0362648;-0.0263168;0.698816
0.023952;-0.0357211;-0.0268012;0.698816
0.024451;-0.0351842;-0.0262423;0.698816
0.02495;-0.034752;-0.0256998;0.699294
0.025449;-0.0343089;-0.0253852;0.698976
0.025948;-0.0338144;-0.0254846;0.698816
0.026447;-0.0333535;-0.0249836;0.699643
0.026946;-0.0328936;-0.024789;0.698975
0.027445;-0.0323737;-0.0247518;0.698816
0.027944;-0.0317952;-0.0247642;0.699007
0.028443;-0.0313492;-0.0244123;0.698816
0.028942;-0.030753;-0.0231912;0.698816
0.029441;-0.0302716;-0.0235265;0.698816
0.02994;-0.0299332;-0.023365;0.698816
0.030439;-0.0293873;-0.0232119;0.699293
0.030938;-0.0289126;-0.0228186;0.698816
0.031437;-0.0283925;-0.022711;0.698816
0.031936;-0.027904;-0.0226075;0.698816
0.032435;-0.0274246;-0.0226199;0.698912
0.032934;-0.0269794;-0.0226033;0.699071
0.033433;-0.0264435;-0.0215766;0.698816
0.033932;-0.0260369;-0.0218292;0.69888
0.034431;-0.0255286;-0.0208562;0.698816
0.03493;-0.0251063;-0.0214399;0.698816
0.035429;-0.0245584;-0.0208024;0.698816
0.035928;-0.0240641;-0.0205375;0.699262
0.036427;-0.0236042;-0.0205292;0.698848
0.036926;-0.0231639;-0.0201069;0.699485
0.037425;-0.0226035;-0.0198876;0.698816
0.037924;-0.0220706;-0.0191921;0.698816
0.038423;-0.021595;-0.0189147;0.698816
0.038922;-0.0211824;-0.0186622;0.698816
0.039421;-0.0207481;-0.0186167;0.698816
0.03992;-0.020322;-0.0186829;0.698816
0.040419;-0.0198077;-0.0185421;0.698816
0.040918;-0.0192995;-0.0181737;0.698816
0.041417;-0.0189057;-0.0181903;0.698816
0.041916;-0.0183302;-0.0180247;0.698816
0.042415;-0.0178121;-0.0179957;0.698816
0.042914;-0.017377;-0.0173209;0.698816
0.043413;-0.0169724;-0.0168241;0.698816
0.043912;-0.0164503;-0.016526;0.698816
0.044411;-0.0160476;-0.0164143;0.698816
0.04491;-0.0155591;-0.0164598;0.698816
0.045409;-0.0150678;-0.0162155;0.698816
0.045908;-0.0145378;-0.0157974;0.698816
0.046407;-0.0141193;-0.0147749;0.698816
0.046906;-0.0136614;-0.0148205;0.698816
0.047405;-0.0130988;-0.0146921;0.698816
0.047904;-0.0125461;-0.0146342;0.698816
0.048403;-0.012116;-0.0146217;0.698816
0.048902;-0.0115199;-0.0137979;0.698816
0.049401;-0.0110639;-0.0136779;0.698816
0.0499;-0.010599;-0.0132018;0.698816
0.050399;-0.0100435;-0.0125021;0.698816
0.050898;-0.00953527;-0.01244;0.698816
0.051397;-0.0090842;-0.0122993;0.698816
0.051896;-0.0086727;-0.0121461;0.698816
0.052395;-0.00814965;-0.0115624;0.698816
0.052894;-0.00761184;-0.0111443;0.698816
0.053393;-0.00727136;-0.011757;0.698816
0.053892;-0.00670386;-0.0106392;0.698816
0.054391;-0.00610586;-0.0103288;0.698816
0.05489;-0.00562817;-0.0103329;0.698816
0.055389;-0.00512683;-0.0103826;0.698816
0.055888;-0.00460872;-0.0104116;0.698816
0.056387;-0.00405211;-0.0103122;0.698816
0.056886;-0.00361494;-0.00943873;0.699103
0.057385;-0.00311263;-0.00898336;0.698816
0.057884;-0.00265371;-0.00915309;0.698816
0.058383;-0.00217311;-0.00886745;0.698816
0.058882;-0.00174481;-0.0084576;0.698816
0.059381;-0.00125728;-0.00826302;0.698816
0.05988;-0.000856608;-0.00824232;0.698816
0.060379;-0.000306919;-0.00801876;0.698816
0.060878;0.000236851;-0.00764204;0.698816
0.061377;0.000674036;-0.00779521;0.698816
0.061876;0.00114182;-0.00724875;0.698944
0.062375;0.00161157;-0.00654913;0.698816
0.062874;0.00204382;-0.00630075;0.698816
0.063373;0.00254715;-0.00632973;0.698816
0.063872;0.00305242;-0.00621795;0.698816
0.064371;0.00358435;-0.00615172;0.698816
0.06487;0.00407678;-0.00608134;0.698816
0.065369;0.00456825;-0.00608962;0.698816
0.065868;0.00511007;-0.00584124;0.698816
0.066367;0.00561832;-0.00590335;0.698816
0.066866;0.00607719;-0.00486014;0.698816
0.067365;0.00661211;-0.00459104;0.698816
0.067864;0.00705228;-0.00422259;0.698816
0.068363;0.00752792;-0.00401974;0.699071
0.068862;0.00800062;-0.00413151;0.698816
0.069361;0.00854736;-0.00371339;0.698816
0.06986;0.00906054;-0.00322076;0.698848
0.070359;0.00946612;-0.00360576;0.698816
0.070858;0.0100139;-0.00331184;0.698816
0.071357;0.0104984;-0.00257082;0.69888
0.071856;0.0109721;-0.0020285;0.698816
0.072355;0.0114222;-0.00201194;0.698848
0.072854;0.0119846;-0.00204506;0.698816
0.073353;0.0124317;-0.00167247;0.698816
0.073852;0.0128699;-0.0020285;0.698816
0.074351;0.013462;-0.00171387;0.698816
0.07485;0.0139121;-0.00130817;0.698816
0.075349;0.0143818;-0.000898335;0.698816
0.075848;0.0149058;-0.000579572;0.69888
0.076347;0.0153094;-0.000165592;0.698816
0.076846;0.0157634;-2.89786e-05;0.698816
0.077345;0.0162944;7.86562e-05;0.698816
0.077844;0.0167612;0.000393281;0.698816
0.078343;0.0172241;0.000567153;0.698816
0.078842;0.0176374;0.000546454;0.699135
0.079341;0.0182059;0.00148204;0.698816
0.07984;0.0186668;0.00150274;0.698816
0.080339;0.0190804;0.0019871;0.698816
0.080838;0.0195876;0.00211543;0.698816
0.081337;0.0200506;0.00218581;0.698816
0.081836;0.0204915;0.00209059;0.698816
0.082335;0.020991;0.0024342;0.698816
0.082834;0.0216058;0.00370925;0.698912
0.083333;0.0220695;0.00406941;0.698816
0.083832;0.0225266;0.00413151;0.698816
0.084331;0.0230297;0.00417291;0.698816
0.08483;0.0234523;0.00416877;0.698816
0.085329;0.0239417;0.00467384;0.698816
0.085828;0.0244281;0.00505884;0.698816
0.086327;0.0249336;0.00519131;0.698816
0.086826;0.0254092;0.00529479;0.698816
0.087325;0.0258682;0.00598199;0.69888
0.087824;0.026394;0.00569221;0.698816
0.088323;0.0269262;0.00613516;0.698816
0.088822;0.0274087;0.00611032;0.698816
0.089321;0.0279316;0.00614758;0.698816
0.08982;0.0283186;0.00626763;0.698816
0.090319;0.0287645;0.00661123;0.698848
0.090818;0.0292453;0.00643737;0.698816
0.091317;0.0297426;0.00690929;0.698816
0.091816;0.0302438;0.0074185;0.698816
0.092315;0.0308224;0.00817608;0.69888
0.092814;0.0313146;0.00807672;0.698816
0.093313;0.031826;0.008292;0.698816
0.093812;0.0323558;0.00864804;0.698816
0.094311;0.0328984;0.00866045;0.698816
0.09481;0.0333803;0.0088302;0.698816
0.095309;0.033768;0.00974922;0.698816
0.095808;0.0342714;0.00959607;0.699358
0.096307;0.0347816;0.0101259;0.698816
0.096806;0.0352049;0.010246;0.698816
0.097305;0.0357467;0.0103412;0.698816
0.097804;0.0362746;0.0102294;0.698816
0.098303;0.0368058;0.0104571;0.698816
0.098802;0.0372301;0.0107345;0.699071
0.099301;0.0377048;0.012084;0.698816
0.0998;0.0381795;0.012084;0.699675
0.100299;0.0385762;0.0123904;0.698816
0.100798;0.0391554;0.0123366;0.698816
0.101297;0.0396972;0.0124152;0.698816
0.101796;0.0400388;0.0129327;0.69888
0.102295;0.0405922;0.0130031;0.698816
0.102794;0.0411517;0.0135495;0.699676
0.103293;0.0415694;0.01451;0.700471
0.103792;0.0419653;0.0141084;0.698816
0.104291;0.042482;0.0140008;0.698816
0.10479;0.0429994;0.0141581;0.698848
0.105289;0.0434929;0.0147956;0.699039
0.105788;0.0440187;0.0147128;0.698816
0.106287;0.0444944;0.0159423;0.698816
0.106786;0.045068;0.0160748;0.698816
0.107285;0.0455615;0.0160665;0.698816
0.107784;0.046016;0.0163563;0.698848
0.108283;0.0464444;0.01617;0.698816
0.108782;0.0468543;0.016526;0.699103
0.109281;0.0472795;0.0166709;0.698816
0.10978;0.0478103;0.0176728;0.698816
0.110279;0.0482248;0.017532;0.699039
0.110778;0.0480362;0.0167082;0.699262
0.111277;0.0476585;0.016613;0.698848
0.111776;0.0470594;0.0165426;0.698816
0.112275;0.0465233;0.0164101;0.698816
0.112774;0.0461072;0.0158885;0.698816
0.113273;0.0457213;0.0153338;0.698912
0.113772;0.0452594;0.0159961;0.699135
0.114271;0.04474;0.0155242;0.698816
0.11477;0.044234;0.0146342;0.698816
0.115269;0.0438007;0.0144479;0.698816
0.115768;0.0433378;0.0144479;0.69888
0.116267;0.042807;0.0140836;0.698816
0.116766;0.042277;0.0132887;0.698816
0.117265;0.0418261;0.0134419;0.698976
0.117764;0.0414221;0.0129203;0.698816
0.118263;0.0408755;0.0124607;0.698816
0.118762;0.0403616;0.0124028;0.698816
0.119261;0.0398669;0.0123945;0.698816
0.11976;0.039422;0.012142;0.698816
0.120259;0.0388988;0.0117321;0.698816
0.120758;0.0384144;0.0118356;0.698816
0.121257;0.0379762;0.0115748;0.698816
0.121756;0.037462;0.0112561;0.69923
0.122255;0.0368916;0.0111153;0.698816
0.122754;0.0364809;0.0105109;0.698816
0.123253;0.0359116;0.0103288;0.699071
0.123752;0.0354446;0.0103288;0.699294
0.124251;0.0350549;0.0101259;0.698816
0.12475;0.034531;0.00935183;0.698816
0.125249;0.0340423;0.00939733;0.698816
0.125748;0.0335136;0.00913654;0.698816
0.126247;0.0330179;0.00853624;0.698816
0.126746;0.0325463;0.0085611;0.69888
0.127245;0.0320964;0.00827544;0.698816
0.127744;0.0315711;0.0081885;0.698816
0.128243;0.03107;0.00826302;0.698816
0.128742;0.0304886;0.00765445;0.698816
0.129241;0.0300308;0.00714112;0.69888
0.12974;0.0295819;0.00685961;0.698816
0.130239;0.0290517;0.00632559;0.698816
0.130738;0.0285613;0.00637113;0.698816
0.131237;0.0281487;0.00630903;0.69888
0.131736;0.0276781;0.00649531;0.698816
0.132235;0.0270722;0.00632145;0.698816
0.132734;0.0266852;0.00635456;0.698816
0.133233;0.0261385;0.00618898;0.698816
0.133732;0.0256174;0.00617656;0.699103
0.134231;0.0251823;0.00536932;0.698816
0.13473;0.0246324;0.00545626;0.698912
0.135229;0.0241351;0.00506297;0.698816
0.135728;0.0236793;0.00466142;0.698816
0.136227;0.0232537;0.00445856;0.698912
0.136726;0.0227635;0.00422259;0.698816
0.137225;0.0222373;0.00406941;0.698816
0.137724;0.0218061;0.00404871;0.698816
0.138223;0.0212851;0.00333668;0.698912
0.138722;0.020753;0.0033077;0.69888
0.139221;0.0202677;0.00308002;0.698912
0.13972;0.0198333;0.00279022;0.698848
0.140219;0.0193192;0.00237211;0.698816
0.140718;0.0187952;0.00218167;0.698816
0.141217;0.018347;0.00195812;0.698816
0.141716;0.0178496;0.00182151;0.698816
0.142215;0.0173356;0.00152344;0.698816
0.142714;0.0170287;0.00130403;0.698816
0.143213;0.0165786;0.000898335;0.698816
0.143712;0.0160822;0.000372582;0.698816
0.144211;0.0155966;0.000115914;0.698816
0.14471;0.0151861;0.000351883;0.698816
0.145209;0.0146157;-0.000149033;0.698816
0.145708;0.0141913;-0.000103495;0.698816
0.146207;0.0137028;-0.000397421;0.698816
0.146706;0.0131452;-0.000360163;0.698816
0.147205;0.0126429;-0.000906615;0.698816
0.147704;0.0122294;-0.00183807;0.698816
0.148203;0.0118021;-0.00203264;0.698816
0.148702;0.0112702;-0.00202022;0.698816
0.149201;0.0107165;-0.00206576;0.698816
0.1497;0.010305;-0.0020699;0.698816
0.150199;0.00976819;-0.00220237;0.698816
0.150698;0.00928358;-0.00344846;0.699166
0.151197;0.0087832;-0.00348571;0.698816
0.151696;0.00825526;-0.00313797;0.698816
0.152195;0.00775787;-0.00392452;0.698816
0.152694;0.00731182;-0.00413565;0.698816
0.153193;0.00684796;-0.00413151;0.698816
0.153692;0.00626177;-0.00418119;0.698816
0.154191;0.00585813;-0.00430539;0.698816
0.15469;0.00538737;-0.00462415;0.699039
0.155189;0.00486731;-0.00506299;0.698816
0.155688;0.00430968;-0.00575431;0.698816
0.156187;0.00387448;-0.0060979;0.698816
0.156686;0.00344323;-0.0061186;0.698816
0.157185;0.00288564;-0.00612689;0.698689
0.157684;0.00234779;-0.00616;0.698816
0.158183;0.00193231;-0.00619726;0.698816
0.158682;0.00147539;-0.00621795;0.698816
0.159181;0.000985889;-0.00619726;0.698816
0.15968;0.000522058;-0.00635043;0.69888
0.160179;4.34227e-05;-0.00717424;0.698816
0.160678;-0.000496399;-0.00718253;0.698848
0.161177;-0.000981941;-0.00750544;0.698816
0.161676;-0.00148427;-0.00753854;0.69888
0.162175;-0.00188395;-0.00824232;0.699071
0.162674;-0.00238628;-0.00826302;0.699103
0.163173;-0.00281459;-0.00829614;0.699007
0.163672;-0.0033475;-0.00850314;0.698976
0.164171;-0.00379947;-0.00841205;0.699707
0.16467;-0.00435607;-0.0088509;0.69888
0.165169;-0.00493145;-0.00973264;0.698816
0.165668;-0.00540416;-0.00996448;0.698816
0.166167;-0.00583543;-0.0101714;0.698848
0.166666;-0.00636734;-0.0102749;0.699326
0.167165;-0.0069072;-0.0103826;0.698816
0.167664;-0.00740854;-0.0107717;0.698816
0.168163;-0.00784172;-0.0106558;0.698816
0.168662;-0.00838751;-0.0109953;0.700026
0.169161;-0.00889571;-0.01155;0.699007
0.16966;-0.00928951;-0.0118315;0.699294
0.170159;-0.00979477;-0.012055;0.698848
0.170658;-0.0103336;-0.0123573;0.699708
0.171157;-0.0107659;-0.0123738;0.699389
0.171656;-0.0113136;-0.012763;0.698976
0.172155;-0.0118712;-0.0125808;0.698912
0.172654;-0.0124376;-0.0133922;0.698816
0.173153;-0.0129212;-0.0134129;0.699357
0.173652;-0.0133771;-0.0132887;0.700057
0.174151;-0.0138637;-0.0141457;0.699135
0.17465;-0.0143355;-0.0146507;0.698816
0.175149;-0.0148141;-0.0151806;0.698816
0.175648;-0.0153144;-0.0153462;0.700981
0.176147;-0.0157219;-0.0161038;0.698848
0.176646;-0.0162085;-0.0161907;0.699134
0.177145;-0.0167563;-0.0164101;0.699549
0.177644;-0.0172023;-0.0165385;0.699167
0.178143;-0.0176315;-0.0165592;0.69888
0.178642;-0.0182049;-0.016526;0.698816
0.179141;-0.0186974;-0.0174037;0.698816
0.17964;-0.0190655;-0.0177929;0.698816
0.180139;-0.019554;-0.0181571;0.698816
0.180638;-0.0200377;-0.0185007;0.698816
0.181137;-0.020525;-0.0185504;0.698816
0.181636;-0.0209249;-0.0185918;0.698848
0.182135;-0.0214804;-0.0187367;0.699007
0.182634;-0.0219067;-0.0187905;0.698816
0.183133;-0.0223894;-0.0191383;0.698816
0.183632;-0.0228679;-0.0199455;0.698816
0.184131;-0.0233358;-0.0197841;0.69888
0.18463;-0.0238479;-0.0202021;0.698848
0.185129;-0.0242978;-0.0204464;0.698816
0.185628;-0.0248052;-0.0206078;0.698816
0.186127;-0.0252395;-0.020968;0.698816
0.186626;-0.0257122;-0.0209391;0.698816
0.187125;-0.0263042;-0.0212495;0.698816
0.187624;-0.0267455;-0.0215891;0.698816
0.188123;-0.0271226;-0.0216014;0.698816
0.188622;-0.0276652;-0.0221066;0.698816
0.189121;-0.0281824;-0.0224999;0.698816
0.18962;-0.0286008;-0.022653;0.698816
0.190119;-0.0290793;-0.022682;0.698816
0.190618;-0.0296657;-0.0227524;0.698816
0.191117;-0.0301402;-0.0226406;0.698816
0.191616;-0.0305419;-0.0227234;0.699103
0.192115;-0.0310888;-0.0227234;0.699039
0.192614;-0.0316878;-0.0227855;0.698816
0.193113;-0.0320747;-0.0231043;0.698816
0.193612;-0.0326725;-0.0242095;0.698816
0.194111;-0.0330959;-0.0246773;0.698816
0.19461;-0.0335185;-0.0247104;0.698816
0.195109;-0.0339397;-0.02476;0.698816
0.195608;-0.0345488;-0.024996;0.698816
0.196107;-0.0349621;-0.0250457;0.698816
0.196606;-0.0354407;-0.0253729;0.698816
0.197105;-0.0360429;-0.0261512;0.698816
0.197604;-0.0365125;-0.0266314;0.698816
0.198103;-0.0369815;-0.0262878;0.698816
0.198602;-0.0375004;-0.0268881;0.698816
0.199101;-0.0379871;-0.026826;0.698816
0.1996;-0.0384835;-0.026855;0.698816
0.200099;-0.0389481;-0.0269088;0.698816
0.200598;-0.0394387;-0.0270247;0.698816
0.201097;-0.0398965;-0.0269792;0.698816
0.201596;-0.0403695;-0.0271696;0.698816
0.202095;-0.0407885;-0.0279395;0.698816
0.202594;-0.0413777;-0.028904;0.698816
0.203093;-0.0418449;-0.0289247;0.698816
0.203592;-0.0423943;-0.0289454;0.698816
0.204091;-0.0430102;-0.02902;0.698816
0.20459;-0.0433991;-0.0297693;0.698816
0.205089;-0.04392;-0.0304566;0.698625
0.205588;-0.0444648;-0.0304897;0.698816
0.206087;-0.044907;-0.0302413;0.698816
0.206586;-0.045456;-0.0308457;0.698816
0.207085;-0.0458012;-0.0308871;0.698816
0.207584;-0.046319;-0.0309865;0.698816
0.208083;-0.0467921;-0.0308954;0.698816
0.208582;-0.0472263;-0.0310196;0.699039
0.209081;-0.0477758;-0.0310279;0.698816
0.20958;-0.0482446;-0.0312969;0.698816
0.210079;-0.0487551;-0.0316736;0.698816
0.210578;-0.0489238;-0.0326919;0.698816
0.211077;-0.0484676;-0.0325554;0.698816
0.211576;-0.047904;-0.0320297;0.698816
0.212075;-0.0473713;-0.031061;0.698816
0.212574;-0.0469095;-0.0309865;0.698816
0.213073;-0.0464068;-0.0309616;0.698816
0.213572;-0.0458497;-0.0307132;0.698816
0.214071;-0.045445;-0.0303986;0.698816
0.21457;-0.0450075;-0.0299929;0.698816
0.215069;-0.0444193;-0.0298313;0.698816
0.215568;-0.0440139;-0.0294215;0.698848
0.216067;-0.0435204;-0.0289868;0.698816
0.216566;-0.0429993;-0.0289661;0.698816
0.217065;-0.0425031;-0.0289454;0.698816
0.217564;-0.0419968;-0.0288792;0.698816
0.218063;-0.0414527;-0.0286888;0.698816
0.218562;-0.0409899;-0.0287633;0.698816
0.219061;-0.0405916;-0.0285812;0.698816
0.21956;-0.0400396;-0.0283163;0.698816
0.220059;-0.0395285;-0.0282211;0.698816
0.220558;-0.0390183;-0.0276373;0.698848
0.221057;-0.0385732;-0.0269833;0.698816
0.221556;-0.0379862;-0.0268674;0.698816
0.222055;-0.0374847;-0.0267763;0.698816
0.222554;-0.0370653;-0.0260849;0.698816
0.223053;-0.0366042;-0.0266687;0.698816
0.223552;-0.0361592;-0.0257164;0.698816
0.224051;-0.0357161;-0.0257909;0.698816
0.22455;-0.0351763;-0.0250747;0.698816
0.225049;-0.034685;-0.0249132;0.698816
0.225548;-0.0342595;-0.024847;0.698816
0.226047;-0.0337296;-0.0246731;0.698816
0.226546;-0.0332607;-0.024491;0.698816
0.227045;-0.0327674;-0.0240522;0.698816
0.227544;-0.0322524;-0.0236548;0.698816
0.228043;-0.0316708;-0.0239694;0.698816
0.228542;-0.0311658;-0.0234271;0.698816
0.229041;-0.0307392;-0.023067;0.698816
0.22954;-0.0303032;-0.0228186;0.698816
0.230039;-0.0298424;-0.0227234;0.698816
0.230538;-0.0293508;-0.0226779;0.698816
0.231037;-0.0288998;-0.0222721;0.698816
0.231536;-0.0283135;-0.0224377;0.698816
0.232035;-0.0277995;-0.0219906;0.698816
0.232534;-0.027323;-0.02156;0.699071
0.233033;-0.0268668;-0.0219989;0.698816
0.233532;-0.0263547;-0.0213655;0.699039
0.234031;-0.0258957;-0.0209929;0.698816
0.23453;-0.0254201;-0.0208314;0.698816
0.235029;-0.0248791;-0.0206865;0.698816
0.235528;-0.0244697;-0.0206078;0.698816
0.236027;-0.0240483;-0.0205416;0.698816
0.236526;-0.0235519;-0.0199952;0.698816
0.237025;-0.0230387;-0.0194653;0.698944
0.237524;-0.022567;-0.0189271;0.699612
0.238023;-0.0220252;-0.0188651;0.699803
0.238522;-0.0215515;-0.0186498;0.699135
0.239021;-0.021134;-0.018567;0.698816
0.23952;-0.0205952;-0.0185918;0.698816
0.240019;-0.0200979;-0.0181282;0.698816
0.240518;-0.0195571;-0.0173996;0.698816
0.241017;-0.0191337;-0.017205;0.698816
0.241516;-0.0186441;-0.017176;0.698816
0.242015;-0.0182108;-0.0167455;0.698816
0.242514;-0.0177381;-0.0170518;0.698816
0.243013;-0.0173287;-0.0165799;0.699135
0.243512;-0.0168915;-0.0166088;0.699071
0.244011;-0.0164316;-0.016526;0.699103
0.24451;-0.0159321;-0.0163149;0.699421
0.245009;-0.0153282;-0.0159175;0.699039
0.245508;-0.0148428;-0.0150109;0.699644
0.246007;-0.0144262;-0.0148163;0.699516
0.246506;-0.0139575;-0.0147708;0.698816
0.247005;-0.0134235;-0.0143775;0.698912
0.247504;-0.012933;-0.0140836;0.69888
0.248003;-0.0124701;-0.013889;0.698816
0.248502;-0.0119255;-0.012912;0.698816
0.249001;-0.0114488;-0.0125187;0.698816
0.2495;-0.0109257;-0.012527;0.698848
0.249999;-0.0104619;-0.0124069;0.698816
0.250498;-0.00997143;-0.0123945;0.698816
0.250997;-0.00950566;-0.0122993;0.698816
0.251496;-0.00895886;-0.0122745;0.698816
0.251995;-0.00843193;-0.011579;0.699326
0.252494;-0.00801443;-0.0111774;0.69923
