t;vds;corrente;vg
0.000499;-0.008723;-0.0122125;-0.216227
0.000998;-0.00917602;-0.0124318;-0.217639
0.001497;-0.00970892;-0.012734;-0.218721
0.001996;-0.0102615;-0.013355;-0.220917
0.002495;-0.0107491;-0.0132266;-0.220631
0.002994;-0.0111893;-0.0134874;-0.222095
0.003493;-0.0117331;-0.0141539;-0.220949
0.003992;-0.0122106;-0.0143113;-0.221077
0.004491;-0.0125876;-0.0144437;-0.219453
0.00499;-0.013161;-0.0145307;-0.222
0.005489;-0.0137492;-0.0147087;-0.22235
0.005988;-0.0141055;-0.0149033;-0.222286
0.006487;-0.0145102;-0.0149074;-0.222095
0.006986;-0.0151564;-0.0155698;-0.220918
0.007485;-0.0156676;-0.0163894;-0.221427
0.007984;-0.0160654;-0.0162652;-0.221809
0.008483;-0.0165925;-0.0165136;-0.22235
0.008982;-0.0170583;-0.016526;-0.221936
0.009481;-0.0174224;-0.0167082;-0.221681
0.00998;-0.0179108;-0.0168697;-0.219899
0.010479;-0.0184626;-0.0178425;-0.221427
0.010978;-0.0188583;-0.0178963;-0.218148
0.011477;-0.0192915;-0.0180578;-0.216684
0.011976;-0.019792;-0.0184842;-0.221204
0.012475;-0.0203554;-0.0185132;-0.22235
0.012974;-0.0207649;-0.0185711;-0.222063
0.013473;-0.0213057;-0.018745;-0.222191
0.013972;-0.0218277;-0.0187491;-0.222095
0.014471;-0.0222532;-0.0189354;-0.222095
0.01497;-0.0227151;-0.018923;-0.220376
0.015469;-0.0232025;-0.0197799;-0.222159
0.015968;-0.0236506;-0.0202146;-0.22044
0.016467;-0.024142;-0.020405;-0.221013
0.016966;-0.0245771;-0.0205913;-0.221554
0.017465;-0.0251053;-0.0208438;-0.221904
0.017964;-0.0254931;-0.0214442;-0.219931
0.018463;-0.0259935;-0.0217463;-0.22114
0.018962;-0.0264582;-0.0219534;-0.21939
0.019461;-0.0270347;-0.0223053;-0.222191
0.01996;-0.0274965;-0.0221231;-0.221713
0.020459;-0.027977;-0.0225412;-0.221809
0.020958;-0.0285317;-0.0227193;-0.221936
0.021457;-0.0289481;-0.0227234;-0.222318
0.021956;-0.0293786;-0.0228145;-0.22235
0.022455;-0.0298916;-0.0227358;-0.221968
0.022954;-0.0302902;-0.0228849;-0.22235
0.023453;-0.0308154;-0.0235016;-0.222222
0.023952;-0.0313768;-0.0235844;-0.221872
0.024451;-0.0318764;-0.024048;-0.22235
0.02495;-0.0324101;-0.0244206;-0.22235
0.025449;-0.0328531;-0.0246938;-0.221108
0.025948;-0.0334011;-0.0246938;-0.222222
0.026447;-0.0338884;-0.0248014;-0.222159
0.026946;-0.0342872;-0.0248139;-0.222318
0.027445;-0.0348546;-0.025232;-0.22235
0.027944;-0.0352848;-0.0250871;-0.220058
0.028443;-0.0357724;-0.0256005;-0.220281
0.028942;-0.0362806;-0.026648;-0.221777
0.029441;-0.0368492;-0.0268302;-0.22079
0.02994;-0.0372587;-0.0267266;-0.220758
0.030439;-0.0377077;-0.0270164;-0.222063
0.030938;-0.0381696;-0.0270247;-0.220122
0.031437;-0.0387509;-0.0271241;-0.221968
0.031936;-0.0392008;-0.0275463;-0.222031
0.032435;-0.0397071;-0.028192;-0.222191
0.032934;-0.0402146;-0.0285936;-0.222063
0.033433;-0.040683;-0.0287095;-0.221777
0.033932;-0.0411626;-0.0287384;-0.220949
0.034431;-0.0416849;-0.0287799;-0.221872
0.03493;-0.0421932;-0.0290738;-0.22184
0.035429;-0.0426223;-0.0290489;-0.220949
0.035928;-0.0432786;-0.0293719;-0.22235
0.036427;-0.0436872;-0.0297859;-0.22235
0.036926;-0.0441173;-0.0299432;-0.221554
0.037425;-0.0446168;-0.0301875;-0.221077
0.037924;-0.0451707;-0.0306553;-0.221904
0.038423;-0.0457096;-0.0309823;-0.221872
0.038922;-0.0460545;-0.0309699;-0.221586
0.039421;-0.0465195;-0.0309865;-0.22235
0.03992;-0.0471109;-0.0310444;-0.221936
0.040419;-0.0475527;-0.0310982;-0.221108
0.040918;-0.0480501;-0.031508;-0.220949
0.041417;-0.0485913;-0.0321083;-0.221841
0.041916;-0.0490912;-0.0319924;-0.221013
0.042415;-0.0487225;-0.0327044;-0.221268
0.042914;-0.0482997;-0.0317192;-0.222159
0.043413;-0.0478271;-0.0312266;-0.221649
0.043912;-0.0472746;-0.0311935;-0.222286
0.044411;-0.0468137;-0.0310486;-0.222191
0.04491;-0.0463703;-0.031003;-0.222254
0.045409;-0.045897;-0.0310196;-0.22235
0.045908;-0.0453601;-0.0309865;-0.22235
0.046407;-0.0449079;-0.0309823;-0.22235
0.046906;-0.044439;-0.0307588;-0.22235
0.047405;-0.0439152;-0.0303655;-0.22235
0.047904;-0.0434444;-0.0302992;-0.221618
0.048403;-0.0429727;-0.0291276;-0.221968
0.048902;-0.042349;-0.0289123;-0.22235
0.049401;-0.0418053;-0.0289206;-0.22235
0.0499;-0.0413609;-0.0288626;-0.222191
0.050399;-0.0409435;-0.0286474;-0.221745
0.050898;-0.0403626;-0.0278319;-0.219517
0.051397;-0.0399537;-0.0273186;-0.221299
0.051896;-0.0394377;-0.0270413;-0.22235
0.052395;-0.038962;-0.0270661;-0.22235
0.052894;-0.0383877;-0.0269709;-0.221554
0.053393;-0.0379013;-0.0267639;-0.221077
0.053892;-0.0374837;-0.0267598;-0.22235
0.054391;-0.0369341;-0.0263291;-0.221968
0.05489;-0.0364463;-0.0259069;-0.220472
0.055389;-0.0359856;-0.0252651;-0.218148
0.055888;-0.0354575;-0.0249339;-0.220822
0.056387;-0.0349464;-0.0248677;-0.219167
0.056886;-0.034528;-0.024789;-0.222191
0.057385;-0.0340591;-0.0247766;-0.221172
0.057884;-0.0335195;-0.0247725;-0.221649
0.058383;-0.0330307;-0.0247849;-0.220535
0.058882;-0.032642;-0.0247932;-0.221936
0.059381;-0.0321398;-0.0247021;-0.219772
0.05988;-0.0315771;-0.0240315;-0.220376
0.060379;-0.0311342;-0.0233112;-0.221586
0.060878;-0.0305981;-0.023067;-0.220726
0.061377;-0.0301176;-0.0234396;-0.220854
0.061876;-0.0296767;-0.023154;-0.220504
0.062375;-0.0292619;-0.0228228;-0.216812
0.062874;-0.0286788;-0.0227234;-0.217798
0.063373;-0.0281743;-0.0227276;-0.218021
0.063872;-0.027686;-0.0225495;-0.21939
0.064371;-0.0272559;-0.0220982;-0.219676
0.06487;-0.0267631;-0.0217463;-0.21713
0.065369;-0.0263172;-0.0211957;-0.217544
0.065868;-0.0258078;-0.0210922;-0.213947
0.066367;-0.0252958;-0.0207776;-0.218117
0.066866;-0.0247834;-0.0207238;-0.215284
0.067365;-0.0243789;-0.0209142;-0.217989
0.067864;-0.023923;-0.0206575;-0.219899
0.068363;-0.0234205;-0.0202891;-0.221299
0.068862;-0.0229617;-0.020376;-0.21974
0.069361;-0.0224633;-0.0199207;-0.221459
0.06986;-0.0218673;-0.0186995;-0.220695
0.070359;-0.0214824;-0.0187202;-0.219326
0.070858;-0.0210916;-0.0187202;-0.222191
0.071357;-0.0205469;-0.0186084;-0.222159
0.071856;-0.0199754;-0.0181199;-0.222127
0.072355;-0.01956;-0.0180868;-0.221809
0.072854;-0.0190419;-0.0178674;-0.222191
0.073353;-0.0185335;-0.0176024;-0.221681
0.073852;-0.0181082;-0.0172837;-0.221872
0.074351;-0.017675;-0.0168448;-0.222159
0.07485;-0.0171935;-0.0165964;-0.221936
0.075349;-0.0167296;-0.0165509;-0.22235
0.075848;-0.0162944;-0.016526;-0.222222
0.076347;-0.0157969;-0.016435;-0.222191
0.076846;-0.0152561;-0.0160789;-0.221777
0.077345;-0.0148171;-0.0162363;-0.22235
0.077844;-0.0143838;-0.0160706;-0.222286
0.078343;-0.0138775;-0.0157146;-0.221618
0.078842;-0.013384;-0.0155822;-0.221841
0.079341;-0.0129853;-0.0151475;-0.22235
0.07984;-0.0123922;-0.01463;-0.222318
0.080339;-0.0118979;-0.0145224;-0.22235
0.080838;-0.0114212;-0.014038;-0.222031
0.081337;-0.010902;-0.0137772;-0.221872
0.081836;-0.010303;-0.0128292;-0.222318
0.082335;-0.00989053;-0.012676;-0.222159
0.082834;-0.00937241;-0.0125849;-0.221013
0.083333;-0.00891939;-0.0122662;-0.22044
0.083832;-0.008426;-0.0123573;-0.221427
0.084331;-0.00794337;-0.0123076;-0.219517
0.08483;-0.00753586;-0.011964;-0.219644
0.085329;-0.00701969;-0.0114424;-0.221331
0.085828;-0.00638314;-0.0107924;-0.22235
0.086327;-0.00591537;-0.0103867;-0.22235
0.086826;-0.00536466;-0.0104654;-0.219676
0.087325;-0.00481697;-0.0104819;-0.221395
0.087824;-0.00441133;-0.010246;-0.221745
0.088323;-0.00397415;-0.00991893;-0.220631
0.088822;-0.00343139;-0.00971196;-0.221936
0.089321;-0.00299519;-0.00935182;-0.220376
0.08982;-0.00253529;-0.00884676;-0.222127
0.090319;-0.0020231;-0.00830442;-0.221363
0.090818;-0.00144874;-0.00836237;-0.22235
0.091317;-0.00105497;-0.0084576;-0.22149
0.091816;-0.000564494;-0.00808914;-0.22079
0.092315;-2.4672e-05;-0.00721564;-0.219294
0.092814;0.000443107;-0.0072115;-0.221236
0.093313;0.000821081;-0.00697554;-0.222254
0.093812;0.00125827;-0.00661951;-0.221204
0.094311;0.00178526;-0.00619726;-0.22079
0.09481;0.00223331;-0.00624693;-0.221204
0.095309;0.00271393;-0.00619726;-0.219612
0.095808;0.00331888;-0.00619726;-0.219708
0.096307;0.00374125;-0.00597786;-0.221968
0.096806;0.00426034;-0.00584537;-0.221649
0.097305;0.00484164;-0.0053569;-0.219358
0.097804;0.00533113;-0.00542314;-0.221809
0.098303;0.00576142;-0.00456621;-0.221968
0.098802;0.00622424;-0.00459519;-0.221713
0.099301;0.00677396;-0.00438405;-0.222063
0.0998;0.00730493;-0.00423501;-0.221872
0.100299;0.0077529;-0.00417705;-0.221713
0.100798;0.0082306;-0.00411495;-0.222127
0.101297;0.00866281;-0.00382517;-0.22235
0.101796;0.00912273;-0.00356437;-0.220949
0.102295;0.00960232;-0.00374237;-0.22235
0.102794;0.0102132;-0.00339878;-0.222063
0.103293;0.0107146;-0.00297652;-0.221745
0.103792;0.0112258;-0.00286475;-0.222254
0.104291;0.0117962;-0.00229759;-0.22235
0.10479;0.0122471;-0.00206576;-0.22235
0.105289;0.0126745;-0.00205748;-0.22235
0.105788;0.0131699;-0.00209887;-0.22235
0.106287;0.0137177;-0.00180495;-0.22235
0.106786;0.0141924;-0.000960432;-0.221586
0.107285;0.0145477;-0.00100597;-0.221459
0.107784;0.0151091;-0.000699626;-0.220981
0.108283;0.0156035;-0.000459518;-0.22235
0.108782;0.0160684;-0.000558873;-0.22235
0.109281;0.0165915;0;-0.222031
0.10978;0.0170533;0.000173872;-0.220313
0.110279;0.0175309;0.000563013;-0.22149
0.110778;0.0179414;0.00124194;-0.220631
0.111277;0.0183935;0.00109704;-0.222095
0.111776;0.0187714;0.00139925;-0.222191
0.112275;0.0192984;0.00212371;-0.22235
0.112774;0.0198147;0.0019871;-0.221745
0.113273;0.0203268;0.00222307;-0.222318
0.113772;0.0207175;0.00224377;-0.222254
0.114271;0.0212278;0.00248388;-0.221649
0.11477;0.0217725;0.00334081;-0.220886
0.115269;0.0221949;0.00272813;-0.221777
0.115768;0.0226677;0.00363887;-0.220313
0.116267;0.0231797;0.00408597;-0.220663
0.116766;0.0236556;0.00379205;-0.22235
0.117265;0.0241292;0.00407769;-0.221268
0.117764;0.0246443;0.00415221;-0.22235
0.118263;0.0250885;0.00423914;-0.221459
0.118762;0.0256085;0.00539829;-0.216589
0.119261;0.0259738;0.00483116;-0.22044
0.11976;0.0265016;0.0046697;-0.22184
0.120259;0.0270555;0.00580813;-0.221013
0.120758;0.0275251;0.00604408;-0.22235
0.121257;0.0280204;0.00602753;-0.221809
0.121756;0.0285189;0.00619726;-0.22149
0.122255;0.0289036;0.00621795;-0.221236
0.122754;0.0294605;0.00642081;-0.220631
0.123253;0.0299883;0.00631317;-0.221809
0.123752;0.0305132;0.00666918;-0.222095
0.124251;0.0309645;0.00720736;-0.22165
0.12475;0.0316187;0.00791942;-0.221268
0.125249;0.0320727;0.00807672;-0.221236
0.125748;0.0325039;0.00830028;-0.222191
0.126247;0.0329153;0.00813882;-0.221172
0.126746;0.0334613;0.00826302;-0.220567
0.127245;0.0339782;0.00830442;-0.221172
0.127744;0.0343938;0.00869772;-0.220822
0.128243;0.0349296;0.00925242;-0.220631
0.128742;0.0355059;0.00943047;-0.217321
0.129241;0.0359461;0.00913238;-0.221586
0.12974;0.0364928;0.0102501;-0.22044
0.130239;0.0370515;0.0103163;-0.22079
0.130738;0.037458;0.0105606;-0.219199
0.131237;0.03792;0.0108669;-0.217225
0.131736;0.0383926;0.0106392;-0.220185
0.132235;0.0389274;0.0107593;-0.220758
0.132734;0.0393617;0.0108504;-0.221618
0.133233;0.0398235;0.0116866;-0.220408
0.133732;0.0403557;0.0121792;-0.220854
0.134231;0.0408221;0.0120923;-0.220026
0.13473;0.0412662;0.0123945;-0.220663
0.135229;0.0417639;0.0125684;-0.220249
0.135728;0.0422879;0.0131562;-0.218594
0.136227;0.0427111;0.0134626;-0.221299
0.136726;0.0433014;0.0138062;-0.221618
0.137225;0.0438017;0.0139635;-0.219708
0.137724;0.0442792;0.0142574;-0.220185
0.138223;0.0446779;0.014423;-0.22079
0.138722;0.0451499;0.0146714;-0.222191
0.139221;0.0456434;0.0147956;-0.220536
0.13972;0.0459825;0.0151351;-0.220567
0.140219;0.0464879;0.0154331;-0.219008
0.140718;0.0469727;0.0155284;-0.21853
0.141217;0.0475083;0.0161741;-0.219167
0.141716;0.0479683;0.0165716;-0.216589
0.142215;0.0481467;0.0167455;-0.218626
0.142714;0.0476881;0.0165509;-0.219644
0.143213;0.0471117;0.0160955;-0.221777
0.143712;0.0467071;0.0161286;-0.217416
0.144211;0.0463417;0.0161245;-0.218785
0.14471;0.045746;0.0148412;-0.221809
0.145209;0.0451962;0.0153669;-0.221299
0.145708;0.0448023;0.0150274;-0.22079
0.146207;0.0443592;0.0148453;-0.217989
0.146706;0.0439043;0.0145969;-0.218562
0.147205;0.0434691;0.0147377;-0.218116
0.147704;0.0429016;0.0140215;-0.217607
0.148203;0.0424369;0.0135909;-0.218785
0.148702;0.0419179;0.0133591;-0.219994
0.149201;0.0414724;0.0127423;-0.21974
0.1497;0.0409613;0.0129037;-0.21853
0.150199;0.0404396;0.0124069;-0.21417
0.150698;0.0399863;0.0123366;-0.21331
0.151197;0.0395364;0.0123034;-0.217321
0.151696;0.0390301;0.0121999;-0.21312
0.152195;0.0385328;0.0121751;-0.214393
0.152694;0.038072;0.0114548;-0.218085
0.153193;0.0376308;0.0106517;-0.218148
0.153692;0.0371048;0.0104116;-0.215729
0.154191;0.0365746;0.00993964;-0.22044
0.15469;0.036108;0.00981134;-0.221331
0.155189;0.0355591;0.00938905;-0.218371
0.155688;0.0351812;0.00980302;-0.221236
0.156187;0.0347283;0.0096706;-0.22044
0.156686;0.0341687;0.00852384;-0.222031
0.157185;0.0336181;0.00838308;-0.22114
0.157684;0.033081;0.00826302;-0.221554
0.158183;0.0326657;0.00832098;-0.221809
0.158682;0.0321458;0.00826302;-0.22149
0.159181;0.0317103;0.00823404;-0.221236
0.15968;0.0312506;0.00777037;-0.220758
0.160179;0.030757;0.0075758;-0.220376
0.160678;0.0301453;0.00672301;-0.221013
0.161177;0.0297566;0.00675199;-0.219835
0.161676;0.0292362;0.00639597;-0.221331
0.162175;0.0286778;0.00625521;-0.222191
0.162674;0.0281339;0.00621796;-0.221968
0.163173;0.0277304;0.00619726;-0.221172
0.163672;0.0272549;0.00614344;-0.220695
0.164171;0.0266931;0.00565496;-0.221108
0.16467;0.0262757;0.00576674;-0.219963
0.165169;0.0257694;0.00543969;-0.21678
0.165668;0.025209;0.00421845;-0.220281
0.166167;0.0247262;0.00439233;-0.219103
0.166666;0.0243039;0.00427227;-0.217957
0.167165;0.023771;0.00422259;-0.219708
0.167664;0.0233198;0.00411081;-0.217098
0.168163;0.0228887;0.00402387;-0.218753
0.168662;0.0224317;0.00398662;-0.219581
0.169161;0.0218416;0.00401146;-0.212387
0.16966;0.0214647;0.00387484;-0.215952
0.170159;0.0209435;0.00317938;-0.215284
0.170658;0.0204058;0.00224791;-0.216716
0.171157;0.0198205;0.00229345;-0.215729
0.171656;0.019484;0.00208232;-0.217607
0.172155;0.018961;0.00197882;-0.219581
0.172654;0.0184862;0.00185462;-0.219931
0.173153;0.0180599;0.00194156;-0.219803
0.173652;0.0176029;0.00169731;-0.221268
0.174151;0.0170918;0.00156898;-0.222159
0.17465;0.0166527;0.00116742;-0.222
0.175149;0.0162065;0.000861077;-0.222127
0.175648;0.0156311;0.000240108;-0.222031
0.176147;0.0151427;0.000219409;-0.222159
0.176646;0.0146769;7.45164e-05;-0.221586
0.177145;0.0143098;-9.10756e-05;-0.221745
0.177644;0.0137759;-0.000252528;-0.222318
0.178143;0.0133041;-0.00129161;-0.222286
0.178642;0.0129222;-0.00185048;-0.221904
0.179141;0.0123745;-0.0019457;-0.221681
0.17964;0.0118031;-0.00206162;-0.222286
0.180139;0.0114291;-0.00216097;-0.221331
0.180638;0.0108567;-0.00260394;-0.222222
0.181137;0.0103316;-0.00244248;-0.222222
0.181636;0.0098629;-0.00253356;-0.222095
0.182135;0.0094642;-0.00279436;-0.21939
0.182634;0.00877432;-0.00365958;-0.221586
0.183133;0.0083204;-0.00368855;-0.220663
0.183632;0.00791672;-0.00374237;-0.220758
0.184131;0.00743519;-0.00394936;-0.221427
0.18463;0.00682822;-0.00404043;-0.220281
0.185129;0.00639991;-0.004235;-0.219008
0.185628;0.00602097;-0.00491395;-0.220313
0.186127;0.00549297;-0.00584952;-0.221554
0.186626;0.00495315;-0.00566738;-0.222
0.187125;0.00452878;-0.00576258;-0.221649
0.187624;0.00403632;-0.00591575;-0.221459
0.188123;0.00343041;-0.00619726;-0.22149
0.188622;0.00289945;-0.00665263;-0.22235
0.189121;0.00240602;-0.00640424;-0.222254
0.18962;0.00190073;-0.00665677;-0.222031
0.190119;0.00145072;-0.00739779;-0.221777
0.190618;0.00102734;-0.00803946;-0.21974
0.191117;0.000584231;-0.00824646;-0.220313
0.191616;8.2898e-05;-0.00826302;-0.221777
0.192115;-0.000393764;-0.00826302;-0.222222
0.192614;-0.000836871;-0.008292;-0.222318
0.193113;-0.00141914;-0.00850728;-0.22235
0.193612;-0.00194711;-0.00875151;-0.221904
0.194111;-0.00237444;-0.00959188;-0.22235
0.19461;-0.00285703;-0.0101425;-0.22235
0.195109;-0.00339586;-0.0101135;-0.22235
0.195608;-0.00381823;-0.010188;-0.222318
0.196107;-0.00427712;-0.0102956;-0.22235
0.196606;-0.0047992;-0.0103288;-0.22184
0.197105;-0.00530053;-0.0104281;-0.222286
0.197604;-0.00580978;-0.0105647;-0.221713
0.198103;-0.0062351;-0.0107427;-0.221522
0.198602;-0.00679369;-0.0111774;-0.22235
0.199101;-0.00735526;-0.0114465;-0.22235
0.1996;-0.00780323;-0.0118274;-0.22235
0.200099;-0.00832831;-0.0123159;-0.22235
0.200598;-0.00881675;-0.0123821;-0.22235
0.201097;-0.00926977;-0.0125725;-0.22235
0.201596;-0.00975037;-0.0126967;-0.221904
0.202095;-0.010305;-0.0127878;-0.221427
0.202594;-0.0107274;-0.0137358;-0.22184
0.203093;-0.0112761;-0.0141622;-0.221331
0.203592;-0.0117705;-0.0144437;-0.221809
0.204091;-0.0122165;-0.0145307;-0.22235
0.20459;-0.0126626;-0.0146135;-0.222095
0.205089;-0.0132992;-0.0148039;-0.220917
0.205588;-0.0137739;-0.0149488;-0.221745
0.206087;-0.014291;-0.0155656;-0.221618
0.206586;-0.0147559;-0.0158306;-0.22149
0.207085;-0.0152601;-0.0159258;-0.221936
0.207584;-0.0157269;-0.0162983;-0.222031
0.208083;-0.0161987;-0.0164267;-0.221968
0.208582;-0.0166754;-0.0165467;-0.221841
0.209081;-0.0170859;-0.016526;-0.220949
0.20958;-0.0175447;-0.0166006;-0.222095
0.210079;-0.0180056;-0.0171015;-0.220695
0.210578;-0.0185593;-0.0177183;-0.22235
0.211077;-0.0189589;-0.0175486;-0.222
0.211576;-0.0193744;-0.0181075;-0.221363
0.212075;-0.0199341;-0.0185835;-0.220058
0.212574;-0.0204165;-0.0184469;-0.220949
0.213073;-0.0208607;-0.0185918;-0.221936
0.213572;-0.0213531;-0.0186084;-0.22184
0.214071;-0.0218356;-0.0192708;-0.221872
0.21457;-0.0222403;-0.0188609;-0.220344
0.215069;-0.0227486;-0.0198172;-0.221777
0.215568;-0.0232222;-0.0201566;-0.221713
0.216067;-0.0237384;-0.0204464;-0.221841
0.216566;-0.0241519;-0.0206161;-0.222095
0.217065;-0.024671;-0.020761;-0.22235
0.217564;-0.0251606;-0.0208107;-0.222031
0.218063;-0.0255631;-0.0211958;-0.221459
0.218562;-0.0260882;-0.0216553;-0.221904
0.219061;-0.0266181;-0.0214193;-0.22114
0.21956;-0.0271265;-0.0224916;-0.222222
0.220059;-0.0275281;-0.0226116;-0.221395
0.220558;-0.028131;-0.0227069;-0.222254
0.221057;-0.0286028;-0.0227193;-0.221872
0.221556;-0.0290024;-0.0227234;-0.222063
0.222055;-0.0295256;-0.0228517;-0.22235
0.222554;-0.0300318;-0.0235431;-0.222318
0.223053;-0.0304737;-0.0237542;-0.22235
0.223552;-0.0308954;-0.0234685;-0.222191
0.224051;-0.0314103;-0.0237955;-0.221713
0.22455;-0.0319366;-0.0240273;-0.221872
0.225049;-0.0324989;-0.0245903;-0.221777
0.225548;-0.0330051;-0.0246773;-0.221777
0.226047;-0.0335264;-0.024789;-0.22235
0.226546;-0.0339377;-0.0250126;-0.220726
0.227045;-0.0343524;-0.0249256;-0.22235
0.227544;-0.0348773;-0.0253976;-0.22235
0.228043;-0.0353617;-0.0258779;-0.221904
0.228542;-0.0358583;-0.0261056;-0.22235
0.229041;-0.0363319;-0.0257579;-0.22235
0.22954;-0.0369677;-0.026855;-0.22235
0.230039;-0.0373475;-0.0267556;-0.222318
0.230538;-0.0378519;-0.0268964;-0.22235
0.231037;-0.0383552;-0.0271986;-0.22235
0.231536;-0.038884;-0.0271323;-0.22235
0.232035;-0.0392966;-0.0276084;-0.22235
0.232534;-0.0397544;-0.0276084;-0.22235
0.233033;-0.0402857;-0.0282003;-0.22235
0.233532;-0.0407067;-0.0287716;-0.222318
0.234031;-0.0411527;-0.0289123;-0.22235
0.23453;-0.0417175;-0.0288668;-0.222318
0.235029;-0.0422267;-0.0290738;-0.22235
0.235528;-0.042796;-0.0294009;-0.22235
0.236027;-0.0433122;-0.0299473;-0.22235
0.236526;-0.0438578;-0.030469;-0.222318
0.237025;-0.0442308;-0.030262;-0.221713
0.237524;-0.0448063;-0.0308126;-0.222191
0.238023;-0.0453158;-0.0309865;-0.222286
0.238522;-0.0457569;-0.0309741;-0.222063
0.239021;-0.0461127;-0.0309865;-0.222159
0.23952;-0.0466677;-0.0309865;-0.221299
0.240019;-0.0470763;-0.0309865;-0.221363
0.240518;-0.0475684;-0.0312969;-0.221522
0.241017;-0.0480501;-0.0316157;-0.221713
0.241516;-0.0486081;-0.0321082;-0.219994
0.242015;-0.0490617;-0.032663;-0.220822
0.242514;-0.0487037;-0.0319137;-0.218785
0.243013;-0.0482238;-0.0315867;-0.219708
0.243512;-0.0476901;-0.0317151;-0.221395
0.244011;-0.0471393;-0.0310403;-0.221204
0.24451;-0.046628;-0.0310775;-0.22235
0.245009;-0.0462096;-0.0309948;-0.222286
0.245508;-0.0456917;-0.0309865;-0.222191
0.246007;-0.0451705;-0.0308747;-0.221713
0.246506;-0.0447637;-0.0309078;-0.22184
0.247005;-0.0442311;-0.0301833;-0.221713
0.247504;-0.0437385;-0.0308416;-0.22235
