t;vds;corrente;vg
0.02495;0.0671401;0.191042;0.115653
0.0499;0.0645916;0.191425;0.117572
0.07485;0.0622682;0.191449;0.111612
0.0998;0.059832;0.191449;0.108513
0.12475;0.0572839;0.191401;0.10364
0.1497;0.0550563;0.191345;0.098224
0.17465;0.052568;0.191449;0.0956678
0.1996;0.0503478;0.191361;0.088223
0.22455;0.0479841;0.191361;0.0858745
0.2495;0.045452;0.191449;0.0797235
0.27445;0.0429679;0.191449;0.073381
0.2994;0.0407482;0.191337;0.0709685
0.32435;0.03832;0.191433;0.0637783
0.3493;0.0353881;0.191153;0.0611582
0.37425;0.0330198;0.191449;0.0555344
0.3992;0.0307319;0.191449;0.0487606
0.42415;0.0283399;0.191449;0.0434565
0.4491;0.025876;0.191449;0.0398618
0.47405;0.0233241;0.191449;0.036171
0.499;0.0210681;0.191449;0.0318891
0.52395;0.01874;0.191449;0.0254347
0.5489;0.0161479;0.191449;0.0221276
0.57385;0.0135;0.191449;0.0159446
0.5988;0.0109281;0.191449;0.0106405
0.62375;0.00839595;0.191449;0.00797229
0.6487;0.00628003;0.191449;0.00166156
0.67365;0.00398398;0.191417;0
0.6986;0.00167199;0.191425;-0.00639062
0.72355;-0.000812001;0.191449;-0.00840366
0.7485;-0.00310799;0.191449;-0.015657
0.77345;-0.00551202;0.191337;-0.0195553
0.7984;-0.00763196;0.191313;-0.0239968
0.82335;-0.010456;0.191449;-0.0294447
0.8483;-0.01276;0.191225;-0.0332792
0.87325;-0.0148679;0.191401;-0.0398618
0.8982;-0.017488;0.191289;-0.0443989
0.92315;-0.020456;0.191337;-0.0482173
0.9481;-0.022704;0.191289;-0.0553427
0.97305;-0.025048;0.191313;-0.0597841
0.998;-0.0276119;0.191161;-0.0637783
1.02295;-0.0301199;0.191449;-0.0684761
1.0479;-0.032476;0.191305;-0.0724543
1.07285;-0.034952;0.191417;-0.0792921
1.0978;-0.037176;0.191417;-0.0824714
1.12275;-0.0396241;0.191209;-0.0876957
1.1477;-0.042212;0.191425;-0.0926004
1.17265;-0.0447118;0.191449;-0.0961151
1.1976;-0.0472402;0.191137;-0.102953
1.22255;-0.0496039;0.191449;-0.105653
1.2475;-0.0523562;0.191449;-0.111612
1.27245;-0.0547719;0.191449;-0.116677
1.2974;-0.0571202;0.191449;-0.120463
1.32235;-0.0593359;0.191449;-0.127269
1.3473;-0.0617961;0.191449;-0.133596
1.37225;-0.0642998;0.191449;-0.135769
1.3972;-0.0664802;0.191417;-0.143375
1.42215;-0.0688879;0.191449;-0.145324
1.4471;-0.07106;0.191449;-0.151475
1.47205;-0.0733279;0.191321;-0.154398
1.497;-0.0757841;0.191425;-0.159447
1.52195;-0.0780118;0.191417;-0.163233
1.5469;-0.0805002;0.190802;-0.167707
1.57185;-0.0827959;0.190674;-0.175264
1.5968;-0.0852038;0.191313;-0.178155
1.62175;-0.0874721;0.191449;-0.183364
1.6467;-0.0899879;0.191449;-0.187533
1.67165;-0.0925603;0.191449;-0.191975
1.6966;-0.0947002;0.191409;-0.199004
1.72155;-0.0943925;0.191329;-0.198365
1.7465;-0.0921234;0.191449;-0.191416
1.77145;-0.0894563;0.191449;-0.186223
1.7964;-0.0870715;0.191345;-0.183364
1.82135;-0.08488;0.191441;-0.177964
1.8463;-0.0825124;0.191425;-0.173394
1.87125;-0.079896;0.191449;-0.167419
1.8962;-0.0774717;0.191409;-0.162035
1.92115;-0.0752883;0.191449;-0.159447
1.9461;-0.07292;0.191449;-0.153648
1.97105;-0.0707998;0.191377;-0.151475
1.996;-0.0686324;0.191449;-0.144254
2.02095;-0.066168;0.191449;-0.142656
2.0459;-0.0637798;0.191425;-0.135545
2.07085;-0.061372;0.191441;-0.131711
2.0958;-0.0588923;0.191433;-0.127461
2.12075;-0.0567558;0.191449;-0.120799
2.1457;-0.0545203;0.191433;-0.116453
2.17065;-0.0517839;0.191449;-0.111612
2.1956;-0.0492481;0.191441;-0.105365
2.22055;-0.0469678;0.191441;-0.103464
2.2455;-0.0444641;0.191449;-0.0958116
2.27045;-0.041776;0.191449;-0.0916738
2.2954;-0.039168;0.191449;-0.087504
2.32035;-0.037044;0.191449;-0.0815129
2.3453;-0.0345602;0.191449;-0.0776946
2.37025;-0.0321958;0.191449;-0.0718792
2.3952;-0.0297799;0.191369;-0.069035
2.42015;-0.027236;0.191441;-0.0637783
2.4451;-0.0246401;0.191385;-0.0593209
2.47005;-0.022376;0.191321;-0.0547836
2.495;-0.0196479;0.191449;-0.0480256
2.51995;-0.0171759;0.191449;-0.0439997
2.5449;-0.014556;0.191329;-0.0398618
2.56985;-0.0124201;0.191153;-0.0330395
2.5948;-0.010076;0.191393;-0.0283265
2.61975;-0.00757198;0.191449;-0.023917
2.6447;-0.00527199;0.191361;-0.0181973
2.66965;-0.00295999;0.191433;-0.0157529
2.6946;-0.000488;0.191449;-0.00806815
2.71955;0.00199999;0.191449;-0.00547996
2.7445;0.004376;0.191449;0
2.76945;0.00661198;0.191449;0.00231661
2.7944;0.00877601;0.191385;0.00797229
2.81935;0.011168;0.191345;0.0114712
2.8443;0.0139919;0.191449;0.0159605
2.86925;0.016544;0.191449;0.0223513
2.8942;0.0191001;0.191449;0.0263932
2.91915;0.021432;0.191449;0.0316815
2.9441;0.0239361;0.191449;0.0371777
2.96905;0.026416;0.191449;0.0398618
2.994;0.0285679;0.191321;0.0463321
3.01895;0.0310238;0.191449;0.0498149
3.0439;0.0333202;0.191449;0.0559338
3.06885;0.0359601;0.191449;0.0614617
3.0938;0.0386682;0.191449;0.06715
3.11875;0.0410239;0.191449;0.0717514
3.1437;0.043256;0.191449;0.075985
3.16865;0.0457837;0.191449;0.0799152
3.1936;0.0485639;0.191449;0.0870886
3.21855;0.0507961;0.191449;0.09153
3.2435;0.0530003;0.191449;0.0956678
3.26845;0.0554558;0.191153;0.0991346
3.2934;0.0577121;0.191449;0.10364
3.31835;0.060212;0.191417;0.108672
3.3433;0.0625678;0.191337;0.111612
3.36825;0.064956;0.191433;0.117827
3.3932;0.0672724;0.191361;0.120719
3.41815;0.0695558;0.191449;0.127605
3.4431;0.0717521;0.191449;0.133516
3.46805;0.0741439;0.191449;0.135896
3.493;0.0766957;0.191345;0.143455
3.51795;0.0788203;0.191209;0.145052
3.5429;0.0810364;0.191193;0.151235
3.56785;0.0835596;0.191449;0.156379
3.5928;0.0862645;0.191393;0.160006
3.61775;0.088652;0.191449;0.166333
3.6427;0.0910235;0.191449;0.169289
3.66765;0.0932085;0.191449;0.175391
3.6926;0.0955644;0.191401;0.178379
3.71755;0.0979955;0.191385;0.18338
3.7425;0.100501;0.191449;0.18854
3.76745;0.10284;0.191393;0.1914
3.7924;0.105176;0.191385;0.198365
3.81735;0.107397;0.191449;0.20172
3.8423;0.110056;0.191337;0.207328
3.86725;0.112783;0.191449;0.21367
3.8922;0.11494;0.191449;0.217712
3.91715;0.117244;0.191449;0.223304
3.9421;0.11984;0.191449;0.229471
3.96705;0.12226;0.191449;0.231867
3.992;0.12476;0.191449;0.239073
4.01695;0.127199;0.191449;0.243387
4.0419;0.129988;0.191449;0.247189
4.06685;0.132304;0.191449;0.25441
4.0918;0.134509;0.191449;0.255113
4.11675;0.136928;0.191449;0.261551
4.1417;0.139288;0.191449;0.263245
4.16665;0.142111;0.191449;0.269955
4.1916;0.144492;0.191449;0.273454
4.21655;0.146836;0.191449;0.279029
4.2415;0.149253;0.191449;0.283666
4.26645;0.151732;0.191449;0.287037
4.2914;0.154207;0.191449;0.293874
4.31635;0.156584;0.191433;0.295616
4.3413;0.158861;0.191449;0.301943
4.36625;0.161192;0.191449;0.30755
4.3912;0.163581;0.191449;0.312407
4.41615;0.166256;0.191449;0.318894
4.4411;0.168615;0.191449;0.32335
4.46605;0.170819;0.191449;0.326864
4.491;0.173149;0.191449;0.331883
4.51595;0.176024;0.191449;0.336212
4.5409;0.178404;0.191449;0.342282
4.56585;0.180404;0.191433;0.346661
4.5908;0.182867;0.191425;0.350783
4.61575;0.185219;0.191449;0.357091
4.6407;0.187345;0.191449;0.359297
4.66565;0.189856;0.191449;0.366008
4.6906;0.192292;0.191409;0.368004
4.71555;0.194548;0.191449;0.374649
4.7405;0.19694;0.191449;0.379396
4.76545;0.199271;0.191449;0.384094
4.7904;0.201757;0.191449;0.390646
4.81535;0.20434;0.191369;0.395053
4.8403;0.206736;0.191385;0.398967
4.86525;0.208931;0.191449;0.405584
4.8902;0.211887;0.191449;0.408729
4.91515;0.214429;0.191449;0.41456
4.9401;0.216829;0.191449;0.41894
4.96505;0.219069;0.191449;0.422566
4.99;0.221432;0.191449;0.428235
5.01495;0.223867;0.191449;0.430504
5.0399;0.226283;0.191449;0.436993
5.06485;0.228614;0.191449;0.438846
5.0898;0.231304;0.191449;0.446289
5.11475;0.233461;0.191449;0.447168
5.1397;0.236;0.191417;0.454328
5.16465;0.238511;0.191449;0.459389
5.1896;0.240811;0.191449;0.462872
5.21455;0.243029;0.191449;0.469603
5.2395;0.245489;0.191449;0.473898
5.26445;0.247817;0.191449;0.47893
5.2894;0.250028;0.191449;0.485883
5.31435;0.252415;0.191449;0.489107
5.3393;0.254515;0.191449;0.494282
5.36425;0.255487;0.191449;0.499894
5.3892;0.255487;0.191441;0.502529
5.41415;0.255487;0.191449;0.509188
5.4391;0.255487;0.191449;0.511282
5.46405;0.255487;0.191449;0.518202
5.489;0.255487;0.191449;0.520708
5.51395;0.255487;0.191449;0.526171
5.5389;0.255487;0.191449;0.531942
5.56385;0.255487;0.191449;0.534738
5.5888;0.255487;0.191449;0.54186
5.61375;0.255487;0.191449;0.547262
5.6387;0.255487;0.191449;0.550489
5.66365;0.255487;0.191449;0.557755
5.6886;0.255487;0.191449;0.561641
5.71355;0.255487;0.191449;0.566803
5.7385;0.255487;0.191449;0.573691
5.76345;0.255487;0.191449;0.578163
5.7884;0.255487;0.191449;0.581981
5.81335;0.255487;0.191449;0.58687
5.8383;0.255487;0.191449;0.590017
5.86325;0.255487;0.191449;0.59607
5.8882;0.255487;0.191449;0.600482
5.91315;0.255487;0.191449;0.605899
5.9381;0.255487;0.191449;0.610131
5.96305;0.255487;0.191449;0.613902
5.988;0.255487;0.191449;0.62002
6.01295;0.255487;0.191449;0.621985
6.0379;0.255487;0.191449;0.628741
6.06285;0.255487;0.191449;0.63165
6.0878;0.255487;0.191449;0.637788
6.11275;0.255487;0.191449;0.644369
6.1377;0.255487;0.191449;0.646764
6.16265;0.255487;0.191449;0.653154
6.1876;0.255487;0.191449;0.656893
6.21255;0.255487;0.191449;0.661701
6.2375;0.255487;0.191449;0.667281
6.26245;0.255487;0.191449;0.669694
6.2874;0.255487;0.191449;0.676738
6.31235;0.255487;0.191449;0.678255
6.3373;0.255487;0.191417;0.684979
6.36225;0.255487;0.191449;0.688063
6.3872;0.255487;0.191449;0.693589
6.41215;0.255487;0.191449;0.696228
6.4371;0.255487;0.191449;0.701486
6.46205;0.255487;0.191409;0.706742
6.487;0.255487;0.191433;0.711482
6.51195;0.255487;0.191449;0.717506
6.5369;0.255487;0.191449;0.722634
6.56185;0.255487;0.191449;0.725909
6.5868;0.255487;0.191449;0.733135
6.61175;0.255487;0.191449;0.738455
6.6367;0.255487;0.191449;0.741426
6.66165;0.255487;0.191449;0.748148
6.6866;0.255487;0.191449;0.753679
6.71155;0.255487;0.191449;0.757179
6.7365;0.255487;0.191449;0.749809
6.76145;0.255487;0.191449;0.745644
6.7864;0.255487;0.191449;0.741426
6.81135;0.255487;0.191449;0.734732
6.8363;0.255487;0.191449;0.731551
6.86125;0.255487;0.191449;0.725509
6.8862;0.255487;0.191449;0.719487
6.91115;0.255487;0.191449;0.714923
6.9361;0.255487;0.191433;0.709538
6.96105;0.255487;0.191449;0.702525
6.986;0.255487;0.191449;0.701198
7.01095;0.255487;0.191449;0.6941
7.0359;0.255487;0.191449;0.692087
7.06085;0.255487;0.191449;0.686513
7.0858;0.255487;0.191377;0.681884
7.11075;0.255487;0.191449;0.677649
7.1357;0.255487;0.191449;0.672665
7.16065;0.255487;0.191449;0.669678
7.1856;0.255487;0.191449;0.662899
7.21055;0.255487;0.191449;0.660998
7.2355;0.255487;0.191449;0.654624
7.26045;0.255487;0.191449;0.652327
7.2854;0.255487;0.191449;0.645839
7.31035;0.255487;0.191449;0.640887
7.3353;0.255487;0.191449;0.637196
7.36025;0.255487;0.191449;0.630387
7.3852;0.255487;0.191449;0.626361
7.41015;0.255487;0.191449;0.621841
7.4351;0.255487;0.191449;0.616315
7.46005;0.255487;0.191409;0.613518
7.485;0.255487;0.191377;0.606778
7.50995;0.255487;0.191449;0.604972
7.5349;0.255487;0.191449;0.59845
7.55985;0.255487;0.191449;0.594074
7.5848;0.255487;0.191273;0.589921
7.60975;0.255487;0.191449;0.58361
7.6347;0.255487;0.191449;0.581981
7.65965;0.255487;0.191449;0.574906
7.6846;0.255487;0.191449;0.570733
7.70955;0.255487;0.191449;0.565699
7.7345;0.255487;0.191393;0.558714
7.75945;0.255487;0.191449;0.554355
7.7844;0.255487;0.191449;0.55009
7.80935;0.255487;0.191449;0.544097
7.8343;0.255487;0.191353;0.540503
7.85925;0.255487;0.191449;0.534226
7.8842;0.255487;0.191449;0.528104
7.90915;0.255487;0.191417;0.525277
7.9341;0.255487;0.191449;0.518202
7.95905;0.255487;0.191449;0.515276
7.984;0.255487;0.191449;0.510226
8.00895;0.255487;0.191449;0.507657
8.0339;0.255487;0.191449;0.502258
8.05885;0.255487;0.191449;0.498293
8.0838;0.253711;0.191449;0.493979
8.10875;0.251503;0.191449;0.486809
8.1337;0.249248;0.191417;0.483995
8.15865;0.246861;0.191449;0.47837
8.1836;0.244517;0.191217;0.473166
8.20855;0.242354;0.191449;0.468835
8.2335;0.240187;0.191449;0.46252
8.25845;0.237487;0.191433;0.456501
8.2834;0.234936;0.191449;0.452553
8.30835;0.232925;0.191449;0.446448
8.3333;0.230429;0.191433;0.443256
8.35825;0.227915;0.191449;0.438479
8.3832;0.225344;0.191449;0.435217
8.40815;0.223112;0.191449;0.430504
8.4331;0.220701;0.191449;0.425331
8.45805;0.218369;0.191449;0.422503
8.483;0.215981;0.191345;0.416413
8.50795;0.213335;0.191425;0.414288
8.5329;0.210768;0.191449;0.407565
8.55785;0.20834;0.191441;0.403744
8.5828;0.205973;0.191449;0.398615
8.60775;0.203133;0.191441;0.393186
8.6327;0.200799;0.191449;0.389558
8.65765;0.198488;0.191449;0.382671
8.6826;0.196376;0.191449;0.377157
8.70755;0.193776;0.191449;0.372638
8.7325;0.191253;0.191449;0.366823
8.75745;0.188937;0.191449;0.36361
8.7824;0.186639;0.191361;0.358753
8.80735;0.184523;0.191449;0.353291
8.8323;0.182227;0.191449;0.350751
8.85725;0.179552;0.191449;0.343736
8.8822;0.177529;0.191449;0.340159
8.90715;0.175017;0.191425;0.334839
8.9321;0.172395;0.191449;0.329437
8.95705;0.170323;0.191449;0.326545
8.982;0.167788;0.191449;0.319821
9.00695;0.165133;0.191449;0.316624
9.0319;0.162728;0.191385;0.310474
9.05685;0.160385;0.191449;0.303796
9.0818;0.158088;0.191225;0.30076
9.10675;0.155527;0.191385;0.294977
9.1317;0.153248;0.191337;0.291143
9.15665;0.150841;0.191433;0.287006
9.1816;0.148564;0.191449;0.281266
9.20655;0.146152;0.191449;0.278455
9.2315;0.143436;0.191417;0.271106
9.25645;0.141052;0.191449;0.267623
9.2814;0.138576;0.191329;0.263085
9.30635;0.135997;0.191449;0.2589
9.3313;0.133784;0.191449;0.255113
9.35625;0.13132;0.191449;0.250736
9.3812;0.129108;0.191449;0.247141
9.40615;0.12646;0.191449;0.240447
9.4311;0.123885;0.191449;0.237268
9.45605;0.12128;0.191449;0.231196
9.481;0.118988;0.191441;0.226563
9.50595;0.11654;0.191449;0.223064
9.5309;0.114131;0.191449;0.216131
9.55585;0.111748;0.191449;0.211546
9.5808;0.109045;0.191449;0.206848
9.60575;0.106796;0.191449;0.199883
9.6307;0.104452;0.191449;0.195649
9.65565;0.101988;0.191449;0.191336
9.6806;0.0993919;0.191449;0.187102
9.70555;0.097112;0.191449;0.183364
9.7305;0.0949247;0.191449;0.177437
9.75545;0.0926354;0.191449;0.174752
9.7804;0.0903601;0.191449;0.16809
9.80535;0.0878759;0.191449;0.164847
9.8303;0.0853321;0.191369;0.159447
9.85525;0.0827963;0.191449;0.155437
9.8802;0.0802043;0.191401;0.151123
9.90515;0.0780635;0.191433;0.144014
9.9301;0.0757522;0.191313;0.141937
9.95505;0.0733278;0.191449;0.135561
9.98;0.0710198;0.191441;0.130832
10.0049;0.0689963;0.191401;0.125703
10.0299;0.066628;0.191449;0.119585
10.0548;0.0643276;0.191449;0.116373
10.0798;0.0617361;0.191449;0.111612
10.1047;0.0592602;0.191449;0.107858
10.1297;0.0570198;0.191409;0.10364
10.1546;0.0547003;0.191449;0.0974252
10.1796;0.052296;0.191449;0.0954122
10.2045;0.0498998;0.191433;0.0884626
10.2295;0.047516;0.191257;0.0848999
10.2544;0.04504;0.191273;0.0795318
10.2794;0.0426599;0.191417;0.0739083
10.3043;0.0403562;0.191449;0.0706329
10.3293;0.037504;0.191449;0.0642097
10.3542;0.0351122;0.191401;0.0596724
10.3792;0.0326718;0.191449;0.0553427
10.4042;0.0304239;0.191449;0.0483771
10.4291;0.0277799;0.191449;0.0435683
10.4541;0.0254321;0.191449;0.0398618
10.479;0.0229201;0.191449;0.0340939
10.504;0.0207001;0.191449;0.0311063
10.5289;0.018228;0.191449;0.0244282
10.5539;0.0155199;0.191449;0.0199548
10.5788;0.01292;0.191449;0.0159446
10.6037;0.0105401;0.191377;0.00813205
10.6287;0.00792396;0.191433;0.00718944
10.6536;0.00565601;0.191449;0.000415392
10.6786;0.00344398;0.191449;-0.000143789
10.7035;0.00108;0.191377;-0.00739714
10.7285;-0.001168;0.191449;-0.00893089
10.7534;-0.00350798;0.191449;-0.0158487
10.7784;-0.00614801;0.191433;-0.0208974
10.8033;-0.00845599;0.191449;-0.0240288
10.8283;-0.010848;0.191449;-0.0307548
10.8532;-0.013172;0.191449;-0.0340781
10.8782;-0.0152959;0.191449;-0.0398618
10.9031;-0.0181641;0.191401;-0.0453096
10.9281;-0.02078;0.191449;-0.0493996
10.953;-0.0229921;0.191449;-0.055806
10.978;-0.025404;0.191393;-0.0617173
11.0029;-0.0283479;0.191449;-0.0637783
11.0279;-0.0306639;0.191409;-0.0698821
11.0528;-0.0329122;0.191273;-0.0726141
11.0778;-0.035288;0.191449;-0.0797075
11.1027;-0.0377641;0.191449;-0.0831104
11.1277;-0.040316;0.191449;-0.0877437
11.1526;-0.042656;0.191449;-0.0938945
11.1776;-0.0452517;0.191425;-0.0972494
11.2025;-0.0476762;0.191449;-0.103464
11.2275;-0.05026;0.191449;-0.107362
11.2524;-0.0527123;0.191273;-0.111868
11.2774;-0.0550878;0.191369;-0.11853
11.3024;-0.0575682;0.191449;-0.122716
11.3273;-0.0597119;0.191449;-0.127557
11.3523;-0.0624319;0.191201;-0.13481
11.3772;-0.0645399;0.191449;-0.137814
11.4022;-0.0670884;0.191329;-0.143503
11.4271;-0.0693118;0.191433;-0.144893
11.452;-0.07138;0.191241;-0.151475
11.477;-0.0739039;0.191257;-0.156459
11.5019;-0.0763679;0.191433;-0.159447
11.5269;-0.0783841;0.191449;-0.16408
11.5518;-0.0807803;0.191409;-0.168745
11.5768;-0.0832637;0.191449;-0.175248
11.6017;-0.0855919;0.191273;-0.179529
11.6267;-0.087972;0.191409;-0.183364
11.6516;-0.0906077;0.191449;-0.189227
11.6766;-0.0928564;0.191161;-0.192917
11.7015;-0.0951244;0.191449;-0.199308
11.7265;-0.0938404;0.191193;-0.1964
11.7514;-0.0914396;0.191393;-0.190968
11.7764;-0.0889443;0.191433;-0.184961
11.8013;-0.0866837;0.191433;-0.182245
11.8263;-0.0844078;0.191265;-0.176382
11.8512;-0.0819444;0.191449;-0.171334
11.8762;-0.0792797;0.191449;-0.166892
11.9011;-0.0772038;0.191449;-0.160118
11.9261;-0.0749721;0.191449;-0.159287
11.951;-0.072544;0.191249;-0.151874
11.976;-0.0702998;0.191393;-0.150133
12.0009;-0.0680044;0.191329;-0.143503
12.0259;-0.0655478;0.191337;-0.140866
12.0508;-0.063264;0.191049;-0.135529
12.0758;-0.0608598;0.191185;-0.130113
12.1007;-0.0586402;0.191449;-0.125368
12.1257;-0.0562799;0.191441;-0.119585
12.1507;-0.0538642;0.191321;-0.113913
12.1756;-0.0512718;0.190858;-0.111165
12.2006;-0.0487722;0.191449;-0.103927
12.2255;-0.0465037;0.191337;-0.100221
12.2505;-0.043892;0.191177;-0.0956678
12.2754;-0.0412121;0.191433;-0.0894052
12.3003;-0.0387561;0.191449;-0.0872963
12.3253;-0.036572;0.191449;-0.0797714
12.3502;-0.0338801;0.191449;-0.0771993
12.3752;-0.0315358;0.191449;-0.0717514
12.4001;-0.02922;0.191449;-0.0660789
12.4251;-0.02682;0.191425;-0.0637783
12.45;-0.0242121;0.191449;-0.057196
12.475;-0.0216041;0.191273;-0.0536812
12.4999;-0.01912;0.191449;-0.0478339
12.5249;-0.0166159;0.191361;-0.0410121
12.5498;-0.014208;0.191353;-0.0388233
12.5748;-0.0119321;0.191449;-0.0318891
12.5997;-0.00943997;0.191425;-0.0268567
12.6247;-0.00710002;0.191449;-0.023885
12.6496;-0.00487197;0.191449;-0.0165836
12.6746;-0.00239598;0.191449;-0.0145067
12.6995;0.000252;0.191449;-0.00797229
12.7245;0.00255999;0.191449;-0.00354681
12.7494;0.00488002;0.191449;0
12.7744;0.00696397;0.191449;0.00442552
12.7993;0.00937603;0.191449;0.00797229
12.8243;0.011904;0.191449;0.014315
12.8492;0.0146839;0.191449;0.0169032
12.8742;0.016892;0.191425;0.0236933
12.8991;0.0195401;0.191449;0.0277992
12.9241;0.022184;0.191449;0.0320969
12.949;0.0244521;0.191449;0.0397499
12.974;0.02684;0.191449;0.0409481
12.999;0.0291639;0.191449;0.0478339
13.0239;0.0315118;0.191393;0.0529782
13.0489;0.0339001;0.191449;0.0565729
13.0738;0.036556;0.191449;0.0637144
13.0988;0.0390682;0.191449;0.0682205
13.1237;0.0414919;0.191449;0.0718792
13.1486;0.043908;0.191449;0.077359
13.1736;0.046572;0.191449;0.0826311
13.1985;0.0490318;0.191449;0.0876957
13.2235;0.0510721;0.191449;0.0923927
13.2484;0.0533803;0.191449;0.0958595
13.2734;0.0558439;0.191449;0.102713
13.2983;0.058264;0.191449;0.104375
13.3233;0.0605281;0.191449;0.111245
13.3482;0.0628636;0.191449;0.111756
13.3732;0.065444;0.191449;0.119409
13.3981;0.0677803;0.191449;0.123786
13.4231;0.0700557;0.191449;0.128164
13.448;0.0724361;0.191449;0.135161
13.473;0.0746721;0.191449;0.138614
13.4979;0.0769396;0.191329;0.143503
13.5229;0.0793083;0.191449;0.14804
13.5478;0.0814323;0.191425;0.15205
13.5728;0.0842435;0.191449;0.159048
13.5977;0.0866244;0.191449;0.161124
13.6227;0.0890361;0.191449;0.166876
13.6476;0.0914154;0.191449;0.170119
13.6726;0.0938324;0.191449;0.175391
13.6975;0.0962841;0.191449;0.180919
13.7225;0.0984793;0.191449;0.183731
13.7474;0.100812;0.191449;0.190361
13.7724;0.103236;0.191449;0.191895
13.7973;0.105648;0.191449;0.198796
13.8223;0.10806;0.191449;0.203605
13.8472;0.11072;0.191449;0.208526
13.8722;0.113279;0.191449;0.214916
13.8972;0.115344;0.191449;0.218415
13.9221;0.11802;0.191449;0.2234
13.9471;0.120276;0.191449;0.230014
