t;vds;corrente;vg
0.000499;-0.0360566;-0.0250808;-0.21662
0.000998;-0.0364721;-0.0253438;-0.21417
0.001497;-0.0369134;-0.0256419;-0.216366
0.001996;-0.0373456;-0.0263209;-0.211623
0.002495;-0.0378233;-0.0268426;-0.211655
0.002994;-0.038368;-0.0268426;-0.214997
0.003493;-0.0388683;-0.0266645;-0.211687
0.003992;-0.0393134;-0.0269005;-0.210064
0.004491;-0.0397998;-0.0271613;-0.208886
0.00499;-0.0402471;-0.0275297;-0.208663
0.005489;-0.0407817;-0.028548;-0.212165
0.005988;-0.0413363;-0.0288751;-0.214042
0.006487;-0.0417787;-0.0284404;-0.20965
0.006986;-0.0422533;-0.0285439;-0.209077
0.007485;-0.0428494;-0.0288958;-0.210541
0.007984;-0.0433221;-0.0288999;-0.211783
0.008483;-0.0437612;-0.0291607;-0.213183
0.008982;-0.044217;-0.0296575;-0.213183
0.009481;-0.0447934;-0.0294216;-0.210605
0.00998;-0.0452546;-0.030382;-0.213947
0.010479;-0.0457174;-0.0304979;-0.210223
0.010978;-0.0462143;-0.0304773;-0.212897
0.011477;-0.0466815;-0.030883;-0.21261
0.011976;-0.0471316;-0.0309658;-0.213151
0.012475;-0.0477619;-0.0311231;-0.217671
0.012974;-0.0482465;-0.0309865;-0.213788
0.013473;-0.0486978;-0.0310072;-0.210414
0.013972;-0.0488222;-0.0310279;-0.206817
0.014471;-0.0484528;-0.0311438;-0.208504
0.01497;-0.0478714;-0.0310237;-0.211114
0.015469;-0.0473862;-0.0309327;-0.210287
0.015968;-0.0469301;-0.0308705;-0.213024
0.016467;-0.0464334;-0.0306842;-0.209777
0.016966;-0.0459454;-0.0304317;-0.2093
0.017465;-0.0454194;-0.0301461;-0.207422
0.017964;-0.0450086;-0.0295291;-0.207804
0.018463;-0.0444805;-0.0290862;-0.207836
0.018962;-0.0440524;-0.0291234;-0.207327
0.019461;-0.0436151;-0.0289413;-0.207581
0.01996;-0.0431562;-0.0288544;-0.207772
0.020459;-0.0425287;-0.028904;-0.209045
0.020958;-0.0420096;-0.0288254;-0.207518
0.021457;-0.0414369;-0.0287509;-0.208536
0.021956;-0.0409149;-0.0273559;-0.208727
0.022455;-0.0404041;-0.0275049;-0.213342
0.022954;-0.0400455;-0.0269088;-0.211624
0.023453;-0.0395876;-0.0269999;-0.213088
0.023952;-0.0390084;-0.0268177;-0.213151
0.024451;-0.0386354;-0.026884;-0.21783
0.02495;-0.0381391;-0.0261594;-0.217512
0.025449;-0.0375884;-0.0250706;-0.21035
0.025948;-0.0372212;-0.025025;-0.217066
0.026447;-0.0367454;-0.0253934;-0.216302
0.026946;-0.0361622;-0.0250995;-0.218562
0.027445;-0.0356865;-0.024789;-0.216748
0.027944;-0.0351496;-0.0247145;-0.214297
0.028443;-0.0346751;-0.0247021;-0.213851
0.028942;-0.0342289;-0.0247559;-0.217098
0.029441;-0.0338085;-0.0247559;-0.216811
0.02994;-0.0332755;-0.0244082;-0.212769
0.030439;-0.0327821;-0.0241184;-0.210891
0.030938;-0.0323382;-0.0234271;-0.211496
0.031437;-0.0318199;-0.0235141;-0.214838
0.031936;-0.0312674;-0.0235679;-0.215666
0.032435;-0.0308321;-0.0234727;-0.211496
0.032934;-0.0303919;-0.022947;-0.210414
0.033433;-0.0298049;-0.0227234;-0.209905
0.033932;-0.0293201;-0.0227234;-0.209077
0.034431;-0.0288071;-0.0226323;-0.208632
0.03493;-0.0282691;-0.0222101;-0.212451
0.035429;-0.0277176;-0.0217091;-0.207836
0.035928;-0.0273348;-0.0215062;-0.208472
0.036427;-0.0268559;-0.0208024;-0.207613
0.036926;-0.0263932;-0.0207238;-0.212992
0.037425;-0.0258878;-0.0205664;-0.211592
0.037924;-0.0254497;-0.020376;-0.213883
0.038423;-0.0248801;-0.020198;-0.216016
0.038922;-0.0245298;-0.0198545;-0.214679
0.039421;-0.0240463;-0.0190141;-0.212483
0.03992;-0.0234758;-0.0188237;-0.211942
0.040419;-0.0230091;-0.0187036;-0.212515
0.040918;-0.0224989;-0.0185421;-0.21086
0.041417;-0.0219828;-0.0185007;-0.213915
0.041916;-0.0215091;-0.0182814;-0.212674
0.042415;-0.0210807;-0.0179543;-0.21121
0.042914;-0.0206356;-0.0166875;-0.208886
0.043413;-0.0200821;-0.0171222;-0.211623
0.043912;-0.0196498;-0.0167827;-0.215507
0.044411;-0.0191258;-0.0166047;-0.216907
0.04491;-0.0186372;-0.0166709;-0.214743
0.045409;-0.0181773;-0.0166254;-0.218435
0.045908;-0.0178269;-0.016526;-0.217671
0.046407;-0.0172744;-0.0164639;-0.211369
0.046906;-0.0168392;-0.0160872;-0.215347
0.047405;-0.0162806;-0.0157519;-0.209586
0.047904;-0.015868;-0.0159796;-0.209205
0.048403;-0.015342;-0.0153131;-0.212356
0.048902;-0.0148497;-0.0147128;-0.211496
0.049401;-0.0144391;-0.0144396;-0.209777
0.0499;-0.013993;-0.0142202;-0.212769
0.050399;-0.0135015;-0.0141001;-0.215634
0.050898;-0.0130751;-0.0135123;-0.213406
0.051397;-0.0125679;-0.0137317;-0.215507
0.051896;-0.0119975;-0.01374;-0.217512
0.052395;-0.0116304;-0.013032;-0.217416
0.052894;-0.0110659;-0.0130155;-0.215634
0.053393;-0.0104855;-0.0123945;-0.21417
0.053892;-0.0100129;-0.0124607;-0.217544
0.054391;-0.00952243;-0.0121751;-0.216589
0.05489;-0.00902103;-0.0117363;-0.21557
0.055389;-0.00851975;-0.0118895;-0.215347
0.055888;-0.00816741;-0.0112105;-0.216207
0.056387;-0.0077332;-0.0111608;-0.217894
0.056886;-0.00714404;-0.010929;-0.219199
0.057385;-0.0066111;-0.0106103;-0.221745
0.057884;-0.00622823;-0.010366;-0.221236
0.058383;-0.00562719;-0.0103288;-0.222191
0.058882;-0.00512683;-0.0103122;-0.221745
0.059381;-0.00459589;-0.0098403;-0.218626
0.05988;-0.00407777;-0.00984443;-0.218498
0.060379;-0.00352613;-0.00970784;-0.216525
0.060878;-0.00312053;-0.00941801;-0.213151
0.061377;-0.00259746;-0.00866874;-0.213279
0.061876;-0.00218002;-0.00862734;-0.215347
0.062375;-0.00166191;-0.00826302;-0.212165
0.062874;-0.00130268;-0.00824646;-0.215348
0.063373;-0.000706604;-0.00825474;-0.217384
0.063872;-0.000200336;-0.00826302;-0.218753
0.064371;0.000197376;-0.00781178;-0.218053
0.06487;0.000695747;-0.00685963;-0.212992
0.065369;0.00123163;-0.00679339;-0.213056
0.065868;0.00153855;-0.00655327;-0.216907
0.066367;0.00210699;-0.00632145;-0.217194
0.066866;0.00266162;-0.00629661;-0.218594
0.067365;0.00319256;-0.00619726;-0.219835
0.067864;0.00365342;-0.00619726;-0.221331
0.068363;0.00422382;-0.00611446;-0.218498
0.068862;0.00472617;-0.00548523;-0.220281
0.069361;0.00509527;-0.00579159;-0.22149
0.06986;0.00561832;-0.00545211;-0.221172
0.070359;0.00610779;-0.0047856;-0.219612
0.070858;0.00653611;-0.00431781;-0.219358
0.071357;0.00703254;-0.00439647;-0.220631
0.071856;0.00757528;-0.00411909;-0.219899
0.072355;0.00799273;-0.0039535;-0.215666
0.072854;0.00852664;-0.0039535;-0.215156
0.073353;0.00911286;-0.0038914;-0.21051
0.073852;0.00965562;-0.00335738;-0.214743
0.074351;0.0100553;-0.00296824;-0.218976
0.07485;0.0105734;-0.0020699;-0.212642
0.075349;0.0110817;-0.00214441;-0.216811
0.075848;0.0114982;-0.00209059;-0.217289
0.076347;0.0120053;-0.0019043;-0.216525
0.076846;0.0124998;-0.00182151;-0.212483
0.077345;0.0130376;-0.00120468;-0.209045
0.077844;0.0134028;-0.00104737;-0.214679
0.078343;0.0138983;-0.000327044;-0.214202
0.078842;0.0144401;-2.0699e-05;-0.215061
0.079341;0.0148545;-0.00020699;-0.221172
0.07984;0.0153301;0.000335324;-0.220026
0.080339;0.0159667;0.000306345;-0.219326
0.080838;0.0163437;0.000546454;-0.220504
0.081337;0.0168165;0.00141581;-0.218785
0.081836;0.0173632;0.00153586;-0.216079
0.082335;0.0176868;0.00165178;-0.216907
0.082834;0.0181625;0.00163108;-0.216207
0.083333;0.0186945;0.0020492;-0.214074
0.083832;0.0191643;0.00206576;-0.214074
0.084331;0.0195886;0.00231415;-0.213119
0.08483;0.0200693;0.00269914;-0.215634
0.085329;0.0206583;0.00362232;-0.217544
0.085828;0.0211686;0.00376721;-0.212355
0.086327;0.0216284;0.00401974;-0.213788
0.086826;0.022188;0.00401974;-0.213342
0.087325;0.0226598;0.00413151;-0.211305
0.087824;0.023079;0.00418119;-0.214679
0.088323;0.023545;0.00419775;-0.215252
0.088822;0.0239634;0.00426399;-0.216143
0.089321;0.0243452;0.00472764;-0.210032
0.08982;0.0248902;0.00550592;-0.211273
0.090319;0.0254546;0.00579156;-0.209427
0.090818;0.0259096;0.00593645;-0.210032
0.091317;0.0263329;0.00603166;-0.213247
0.091816;0.02694;0.00618484;-0.213533
0.092315;0.0274402;0.00625521;-0.212897
0.092814;0.0277994;0.00619726;-0.215729
0.093313;0.0284301;0.00633801;-0.218371
0.093812;0.0289599;0.00632972;-0.219517
0.094311;0.0293687;0.00654914;-0.220185
0.09481;0.0298738;0.00745161;-0.217544
0.095309;0.0303543;0.00810156;-0.212674
0.095808;0.0307819;0.00823404;-0.220854
0.096307;0.031355;0.00827544;-0.216907
0.096806;0.0318616;0.00847002;-0.21452
0.097305;0.032416;0.008292;-0.215379
0.097804;0.0328343;0.00891297;-0.211273
0.098303;0.0333547;0.00928971;-0.21713
0.098802;0.0339327;0.0100928;-0.214424
0.099301;0.0343425;0.0100017;-0.215952
0.0998;0.0348822;0.0102211;-0.216048
0.100299;0.0354495;0.0104612;-0.212451
0.100798;0.0358336;0.0104654;-0.216207
0.101297;0.0363181;0.0105482;-0.212578
0.101796;0.0368571;0.0108462;-0.217289
0.102295;0.0372874;0.0114962;-0.219039
0.102794;0.0376712;0.0117446;-0.21888
0.103293;0.0381982;0.012142;-0.218339
0.103792;0.0387489;0.0123697;-0.217448
0.104291;0.0392541;0.0125187;-0.219199
0.10479;0.0397209;0.0126263;-0.216589
0.105289;0.0401988;0.0126512;-0.21662
0.105788;0.0406101;0.0124442;-0.217353
0.106287;0.0411626;0.0134253;-0.218244
0.106786;0.0417254;0.0139304;-0.221681
0.107285;0.042136;0.0140712;-0.220281
0.107784;0.0425926;0.0144437;-0.21713
0.108283;0.0430408;0.0144396;-0.218339
0.108782;0.0436378;0.0147501;-0.220026
0.109281;0.044062;0.0147749;-0.21904
0.10978;0.0445181;0.0155242;-0.216079
0.110279;0.0450542;0.0155118;-0.217385
0.110778;0.0454925;0.0159465;-0.219581
0.111277;0.0459746;0.0165923;-0.216748
0.111776;0.0463792;0.0166958;-0.216875
0.112275;0.0469214;0.0164929;-0.218721
0.112774;0.0473199;0.0170311;-0.217066
0.113273;0.0478902;0.0175072;-0.218148
0.113772;0.0483156;0.0179005;-0.216589
0.114271;0.0479868;0.0169317;-0.218085
0.11477;0.0474533;0.0167579;-0.219008
0.115269;0.0469854;0.0164184;-0.222127
0.115768;0.0465056;0.0165385;-0.220313
0.116267;0.0459809;0.0163604;-0.222063
0.116766;0.0456335;0.0163729;-0.218849
0.117265;0.0451498;0.016021;-0.220758
0.117764;0.0446946;0.0160458;-0.21974
0.118263;0.0441955;0.0153545;-0.218244
0.118762;0.0438461;0.0150895;-0.220695
0.119261;0.0433003;0.0147749;-0.21939
0.11976;0.0428069;0.0144437;-0.217862
0.120259;0.042273;0.014096;-0.217703
0.120758;0.0417164;0.0141208;-0.218212
0.121257;0.0412237;0.0135537;-0.220726
0.121756;0.0407779;0.0136199;-0.220854
0.122255;0.0401808;0.0128002;-0.219676
0.122754;0.0397623;0.0127009;-0.216207
0.123253;0.0393608;0.0124897;-0.210414
0.123752;0.038889;0.0123448;-0.211496
0.124251;0.0383354;0.0123241;-0.211878
0.12475;0.0378954;0.0118315;-0.211815
0.125249;0.0374758;0.0107883;-0.215379
0.125748;0.0369508;0.0104819;-0.21748
0.126247;0.0364029;0.0105523;-0.217798
0.126746;0.0359895;0.0102584;-0.218785
0.127245;0.0354634;0.0102087;-0.217957
0.127744;0.0348803;0.0104074;-0.214424
0.128243;0.0344125;0.0101797;-0.213692
0.128742;0.0339525;0.010246;-0.211974
0.129241;0.0333229;0.00912827;-0.21487
0.12974;0.0329784;0.00911997;-0.210732
0.130239;0.032496;0.00848244;-0.211751
0.130738;0.0320135;0.00856524;-0.209523
0.131237;0.0314952;0.00837066;-0.20809
0.131736;0.0310089;0.00826302;-0.210764
0.132235;0.0305281;0.00818851;-0.215411
0.132734;0.0300091;0.00824232;-0.211592
0.133233;0.0295345;0.0081678;-0.217512
0.133732;0.0289748;0.00813882;-0.218658
0.134231;0.0284299;0.00752613;-0.216684
0.13473;0.0279987;0.00702521;-0.215825
0.135229;0.027537;0.00648289;-0.216079
0.135728;0.0269695;0.00642908;-0.213852
0.136227;0.0265342;0.00620554;-0.213979
0.136726;0.0260665;0.00619726;-0.215761
0.137225;0.0256076;0.00605237;-0.215029
0.137724;0.0250885;0.00610618;-0.211114
0.138223;0.0246226;0.00572946;-0.21035
0.138722;0.0242002;0.00571705;-0.213883
0.139221;0.0235706;0.00461175;-0.217098
0.13972;0.0231511;0.00428055;-0.213374
0.140219;0.0227723;0.00426399;-0.208791
0.140718;0.0222176;0.00409425;-0.210764
0.141217;0.0217123;0.00410253;-0.209618
0.141716;0.0212347;0.00378791;-0.20895
0.142215;0.0207264;0.00363474;-0.209427
0.142714;0.0201581;0.00249216;-0.212546
0.143213;0.0197179;0.0027778;-0.208695
0.143712;0.0192541;0.00224377;-0.209745
0.144211;0.0188534;0.00209473;-0.213852
0.14471;0.0183411;0.00216925;-0.212928
0.145209;0.0179256;0.00188774;-0.212897
0.145708;0.0174658;0.0019871;-0.210446
0.146207;0.0169517;0.00168903;-0.212419
0.146706;0.0165273;0.000976991;-0.213406
0.147205;0.0160496;0.00110532;-0.213279
0.147704;0.0155087;0.000637529;-0.218817
0.148203;0.0150717;-8.2796e-06;-0.213438
0.148702;0.0145881;0;-0.213087
0.149201;0.0140769;0;-0.216334
0.1497;0.0136298;-0.000273227;-0.211496
0.150199;0.0132478;-0.00021113;-0.21086
0.150698;0.0127258;-0.000645809;-0.212451
0.151197;0.0122363;-0.00146963;-0.213851
0.151696;0.01181;-0.00112188;-0.210159
0.152195;0.0112682;-0.00187118;-0.210223
0.152694;0.0107461;-0.00197468;-0.212833
0.153193;0.0101816;-0.001925;-0.209109
0.153692;0.00968727;-0.00208645;-0.209618
0.154191;0.00919671;-0.00213199;-0.211337
0.15469;0.00862238;-0.00216511;-0.208568
0.155189;0.00821676;-0.00206576;-0.207581
0.155688;0.0077628;-0.00225204;-0.210191
0.156187;0.00725853;-0.0024342;-0.210573
0.156686;0.00683514;-0.00305518;-0.211114
0.157185;0.00637723;-0.0035478;-0.212037
0.157684;0.00584727;-0.00395764;-0.2107
0.158183;0.00535776;-0.00426399;-0.215284
0.158682;0.00487521;-0.00417705;-0.212674
0.159181;0.00432548;-0.00449996;-0.214392
0.15968;0.0038054;-0.00488083;-0.208663
0.160179;0.00334455;-0.00505885;-0.210987
0.160678;0.00278694;-0.00572118;-0.214743
0.161177;0.0021583;-0.00601511;-0.21
0.161676;0.00176553;-0.00603581;-0.207581
0.162175;0.00140532;-0.00622209;-0.209937
0.162674;0.000875359;-0.00620554;-0.20895
0.163173;0.000480609;-0.00619726;-0.207645
0.163672;3.05933e-05;-0.00624279;-0.208663
0.164171;-0.000614823;-0.00729017;-0.212324
0.16467;-0.00107767;-0.00755925;-0.214615
0.165169;-0.00144677;-0.00808915;-0.212578
0.165668;-0.00194316;-0.00797323;-0.210732
0.166167;-0.00250372;-0.00830855;-0.211655
0.166666;-0.00298334;-0.00828786;-0.216366
0.167165;-0.00350737;-0.00826302;-0.218658
0.167664;-0.00406987;-0.00854866;-0.214329
0.168163;-0.00446462;-0.00908273;-0.219708
0.168662;-0.00491269;-0.00965401;-0.216716
0.169161;-0.00552259;-0.0101797;-0.216843
0.16966;-0.00595483;-0.0102956;-0.213438
0.170159;-0.00648874;-0.0104737;-0.218817
0.170658;-0.00698517;-0.0106185;-0.214965
0.171157;-0.00743814;-0.0106599;-0.214806
0.171656;-0.00788317;-0.011223;-0.219517
0.172155;-0.00843487;-0.0120178;-0.215984
0.172654;-0.00901119;-0.0120592;-0.219581
0.173153;-0.00939804;-0.0122372;-0.219803
0.173652;-0.00986485;-0.0123945;-0.219867
0.174151;-0.0104609;-0.0124897;-0.221045
0.17465;-0.0109682;-0.0129327;-0.221427
0.175149;-0.0114281;-0.0131355;-0.221586
0.175648;-0.0119373;-0.0139925;-0.220854
0.176147;-0.012484;-0.0136033;-0.220249
0.176646;-0.0129646;-0.0143485;-0.222031
0.177145;-0.0134768;-0.0143278;-0.222159
0.177644;-0.0139723;-0.0143195;-0.222159
0.178143;-0.0144727;-0.0143734;-0.22235
0.178642;-0.0148151;-0.0145017;-0.222318
0.179141;-0.0153311;-0.0145265;-0.221713
0.17964;-0.0158986;-0.0149695;-0.221872
0.180139;-0.0162717;-0.0153959;-0.22235
0.180638;-0.0168185;-0.0156609;-0.222318
0.181137;-0.0173356;-0.0159879;-0.22235
0.181636;-0.017748;-0.0164639;-0.222318
0.182135;-0.0181102;-0.0164308;-0.222063
0.182634;-0.0186402;-0.0165881;-0.22235
0.183133;-0.0191524;-0.0171346;-0.221809
0.183632;-0.0194366;-0.0178591;-0.222254
0.184131;-0.0199746;-0.0182772;-0.22235
0.18463;-0.0205034;-0.0181116;-0.22235
0.185129;-0.0209673;-0.0185587;-0.221268
0.185628;-0.0214399;-0.0184345;-0.220631
0.186127;-0.0220804;-0.0184842;-0.22149
0.186626;-0.0225552;-0.0190927;-0.22114
0.187125;-0.0229291;-0.0188775;-0.220695
0.187624;-0.0234957;-0.0200283;-0.221777
0.188123;-0.0239062;-0.019722;-0.220854
0.188622;-0.0243264;-0.0204712;-0.220695
0.189121;-0.0248734;-0.0205333;-0.219804
0.18962;-0.025346;-0.020612;-0.221936
0.190119;-0.0257952;-0.0206948;-0.219708
0.190618;-0.0262746;-0.0207776;-0.221459
0.191117;-0.0267929;-0.0207486;-0.221204
0.191616;-0.0272794;-0.0206534;-0.218594
0.192115;-0.0277875;-0.0208314;-0.219835
0.192614;-0.0282663;-0.020877;-0.218276
0.193113;-0.0287941;-0.0209101;-0.219994
0.193612;-0.0292591;-0.0220072;-0.219231
0.194111;-0.029717;-0.0222018;-0.217098
0.19461;-0.0302123;-0.0227069;-0.218658
0.195109;-0.0305705;-0.0227524;-0.212451
0.195608;-0.031074;-0.022769;-0.210127
0.196107;-0.0316819;-0.023067;-0.214138
0.196606;-0.0321349;-0.0233195;-0.209236
0.197105;-0.032639;-0.0232988;-0.211146
0.197604;-0.0331236;-0.0240564;-0.213406
0.198103;-0.0336102;-0.0236962;-0.208886
0.198602;-0.0340937;-0.0242385;-0.206754
0.199101;-0.0346287;-0.0245241;-0.208791
0.1996;-0.0351388;-0.0247476;-0.208122
0.200099;-0.0355137;-0.024698;-0.208472
0.200598;-0.0360457;-0.0248884;-0.209395
0.201097;-0.0366162;-0.0249008;-0.208281
0.201596;-0.0370012;-0.025083;-0.208536
0.202095;-0.0375152;-0.025261;-0.209936
0.202594;-0.0380039;-0.0258862;-0.211051
0.203093;-0.0384815;-0.0261512;-0.2079
0.203592;-0.0389728;-0.0267681;-0.208218
0.204091;-0.0394822;-0.0265859;-0.208409
0.20459;-0.0399696;-0.0269461;-0.208441
0.205089;-0.040468;-0.0269461;-0.208154
0.205588;-0.0409761;-0.0269875;-0.208377
0.206087;-0.0415151;-0.0273559;-0.208409
0.206586;-0.0419514;-0.0276291;-0.21
0.207085;-0.0423846;-0.0282624;-0.212578
0.207584;-0.0430053;-0.0289579;-0.21312
0.208083;-0.043482;-0.0288958;-0.217066
0.208582;-0.0439279;-0.0292683;-0.217225
0.209081;-0.0444717;-0.0292352;-0.211687
0.20958;-0.0449307;-0.0298067;-0.20965
0.210079;-0.0453553;-0.030527;-0.212324
0.210578;-0.0458269;-0.0304855;-0.210541
0.211077;-0.0463496;-0.0307215;-0.212196
0.211576;-0.0468187;-0.0309616;-0.217066
0.212075;-0.0473425;-0.0309865;-0.21452
0.212574;-0.0479475;-0.0309865;-0.213533
0.213073;-0.0483295;-0.0311024;-0.214424
0.213572;-0.04882;-0.0316156;-0.218085
0.214071;-0.0488193;-0.0312845;-0.217735
0.21457;-0.0483827;-0.0312721;-0.21366
0.215069;-0.0477748;-0.0310569;-0.210478
0.215568;-0.0473082;-0.0309575;-0.21452
0.216067;-0.0468413;-0.0309451;-0.216175
0.216566;-0.046324;-0.0308788;-0.216716
0.217065;-0.0458516;-0.0307588;-0.217289
0.217564;-0.0453937;-0.0300011;-0.21261
0.218063;-0.0449651;-0.0294919;-0.210287
0.218562;-0.0444509;-0.0296451;-0.215697
0.219061;-0.0439951;-0.029227;-0.213279
0.21956;-0.0435214;-0.0289247;-0.212196
0.220059;-0.0429973;-0.0289951;-0.217193
0.220558;-0.0424113;-0.0287468;-0.212674
0.221057;-0.0419533;-0.0288958;-0.21191
0.221556;-0.0413816;-0.0288088;-0.212005
0.222055;-0.0408972;-0.0288709;-0.215124
0.222554;-0.040483;-0.0282086;-0.214743
0.223053;-0.040009;-0.0282169;-0.21853
0.223552;-0.0394526;-0.0273393;-0.217193
0.224051;-0.0389867;-0.0275132;-0.219103
0.22455;-0.0385476;-0.0272938;-0.218721
0.225049;-0.038001;-0.0268509;-0.213279
0.225548;-0.037464;-0.0267598;-0.216239
0.226047;-0.0370496;-0.0267308;-0.220695
0.226546;-0.0365776;-0.0264368;-0.22184
0.227045;-0.0360201;-0.0256626;-0.221172
0.227544;-0.0355108;-0.0248718;-0.215602
0.228043;-0.0351181;-0.0247725;-0.217416
0.228542;-0.0345951;-0.0247435;-0.214806
0.229041;-0.034143;-0.0241929;-0.215761
0.22954;-0.0336793;-0.0242302;-0.217289
0.230039;-0.0331728;-0.0240274;-0.215538
0.230538;-0.0327121;-0.0238038;-0.212101
0.231037;-0.0322257;-0.0230049;-0.211592
0.231536;-0.0317923;-0.0229718;-0.213629
0.232035;-0.0311816;-0.0227897;-0.206785
0.232534;-0.0307323;-0.0229014;-0.213788
0.233033;-0.0302381;-0.0227234;-0.208759
0.233532;-0.0296924;-0.022682;-0.209014
0.234031;-0.0292135;-0.0226779;-0.208027
0.23453;-0.028811;-0.0226737;-0.210478
0.235029;-0.0282158;-0.0220237;-0.208759
0.235528;-0.0277659;-0.0211419;-0.20774
0.236027;-0.0272776;-0.0206989;-0.209427
0.236526;-0.0267928;-0.0207941;-0.209395
0.237025;-0.0261988;-0.0206575;-0.208504
0.237524;-0.0258246;-0.0206327;-0.209396
0.238023;-0.0253757;-0.0200822;-0.211878
0.238522;-0.0248466;-0.0191631;-0.212865
0.239021;-0.0243917;-0.0197261;-0.214329
0.23952;-0.0238806;-0.0191383;-0.214297
0.240019;-0.023383;-0.0187823;-0.213724
0.240518;-0.0228838;-0.0185504;-0.212133
0.241017;-0.0224189;-0.0185918;-0.215761
0.241516;-0.0219522;-0.0185173;-0.214042
0.242015;-0.0214785;-0.0182317;-0.210096
0.242514;-0.0210837;-0.0178425;-0.211496
0.243013;-0.0206208;-0.0172174;-0.211114
0.243512;-0.0200623;-0.0167165;-0.21156
0.244011;-0.0196133;-0.0167869;-0.218212
0.24451;-0.0191248;-0.0165964;-0.215316
0.245009;-0.0187093;-0.016526;-0.209109
0.245508;-0.0182177;-0.016526;-0.212706
0.246007;-0.0176898;-0.0160085;-0.214743
0.246506;-0.0172063;-0.0158761;-0.213024
