t;vds;corrente;vg
0.000499;-0.00914342;-0.0122267;0.477466
0.000998;-0.00861054;-0.0120592;0.485885
0.001497;-0.00810621;-0.0117073;0.48859
0.001996;-0.00760592;-0.0120551;0.483879
0.002495;-0.00703647;-0.0114092;0.487699
0.002994;-0.00663281;-0.0104447;0.490564
0.003493;-0.00608414;-0.0103288;0.487317
0.003992;-0.00559363;-0.0102667;0.488463
0.004491;-0.00518406;-0.0101673;0.48929
0.00499;-0.00472716;-0.0101301;0.489099
0.005489;-0.00410639;-0.00977818;0.490086
0.005988;-0.00365639;-0.00959194;0.484675
0.006487;-0.00322613;-0.0096085;0.487221
0.006986;-0.00267543;-0.00908683;0.48407
0.007485;-0.00222245;-0.00855282;0.480442
0.007984;-0.00174777;-0.00826302;0.482925
0.008483;-0.00122175;-0.00819678;0.486012
0.008982;-0.000654299;-0.00812641;0.48929
0.009481;-0.000257575;-0.00717838;0.487699
0.00998;0.000216126;-0.0066816;0.490436
0.010479;0.000697721;-0.0064829;0.488208
0.010978;0.00113688;-0.00621795;0.485439
0.011477;0.00155434;-0.00619726;0.487349
0.011976;0.0020379;-0.00619726;0.489354
0.012475;0.00255011;-0.00619726;0.48528
0.012974;0.00304157;-0.00617242;0.484516
0.013473;0.00359717;-0.00602753;0.486203
0.013972;0.00415178;-0.00585367;0.48337
0.014471;0.00463339;-0.00557631;0.482129
0.01497;0.00516139;-0.00500918;0.484038
0.015469;0.00570418;-0.00430125;0.483879
0.015968;0.00613048;-0.00427641;0.482956
0.016467;0.0065756;-0.0038914;0.483275
0.016966;0.00709965;-0.00406113;0.482033
0.017465;0.00757331;-0.00399076;0.484611
0.017964;0.00793449;-0.00360163;0.482511
0.018463;0.00845362;-0.00372582;0.477768
0.018962;0.00904179;-0.0026412;0.482192
0.019461;0.00948981;-0.002724;0.480219
0.01996;0.0100415;-0.00213613;0.485789
0.020459;0.0106139;-0.00221065;0.481078
0.020958;0.0110639;-0.0020699;0.480856
0.021457;0.0115317;-0.00204092;0.483975
0.021956;0.0120635;-0.00175941;0.480505
0.022455;0.0124948;-0.00151516;0.4785
0.022954;0.0129567;-0.00120882;0.478755
0.023453;0.0134206;-0.000277367;0.481238
0.023952;0.0139496;-0.000240108;0.480665
0.024451;0.0143364;-7.86562e-05;0.480474
0.02495;0.0147658;2.89786e-05;0.480346
0.025449;0.0153499;2.48388e-05;0.479869
0.025948;0.0158532;2.89786e-05;0.482161
0.026447;0.01632;0.00041398;0.4792
0.026946;0.0167632;0.000190431;0.481015
0.027445;0.0172517;0.000637529;0.477959
0.027944;0.0177095;0.00148618;0.482097
0.028443;0.0181595;0.00206162;0.482161
0.028942;0.0187004;0.00219409;0.483434
0.029441;0.0190646;0.00217339;0.48337
0.02994;0.019479;0.00205333;0.481779
0.030439;0.020018;0.0025584;0.481556
0.030938;0.0204875;0.00344431;0.485025
0.031437;0.0209525;0.00375066;0.481206
0.031936;0.0214547;0.00408183;0.479296
0.032435;0.022036;0.00407769;0.480314
0.032934;0.0224546;0.0039535;0.480505
0.033433;0.0229448;0.00415635;0.483561
0.033932;0.0234957;0.00420603;0.482829
0.034431;0.0239762;0.00431367;0.485503
0.03493;0.0244123;0.00464487;0.484707
0.035429;0.0248931;0.00551836;0.489004
0.035928;0.0253894;0.00577914;0.483306
0.036427;0.0258297;0.0060027;0.483147
0.036926;0.0263052;0.00589919;0.482192
0.037425;0.02679;0.00616828;0.479646
0.037924;0.0272311;0.00617656;0.48302
0.038423;0.0277905;0.00622209;0.488717
0.038922;0.0283403;0.00619726;0.489863
0.039421;0.0288928;0.00623037;0.48719
0.03992;0.0292858;0.00633387;0.484962
0.040419;0.0298018;0.00627591;0.481747
0.040918;0.0303839;0.00701279;0.482925
0.041417;0.0307839;0.00767104;0.48684
0.041916;0.0313107;0.00784905;0.483179
0.042415;0.0318547;0.0082506;0.483625
0.042914;0.0323075;0.00826302;0.479551
0.043413;0.032784;0.00846174;0.482033
0.043912;0.0332836;0.00892953;0.479964
0.044411;0.0337345;0.00888402;0.480378
0.04491;0.0341974;0.00892542;0.481556
0.045409;0.0347569;0.0100555;0.484007
0.045908;0.0352907;0.0103288;0.485885
0.046407;0.0357813;0.0105068;0.48493
0.046906;0.036252;0.0107055;0.486585
0.047405;0.0368315;0.0114092;0.484134
0.047904;0.0373159;0.0116452;0.482224
0.048403;0.0378164;0.0123407;0.48719
0.048902;0.0382407;0.0121792;0.486394
0.049401;0.0387351;0.0123614;0.489895
0.0499;0.0391929;0.0124152;0.48754
0.050399;0.0396666;0.0123986;0.488526
0.050898;0.0401198;0.0129534;0.486203
0.051397;0.0406011;0.0134046;0.486935
0.051896;0.0411093;0.0136282;0.48407
0.052395;0.0417324;0.0139925;0.490054
0.052894;0.0421251;0.0139677;0.484802
0.053393;0.0425749;0.014067;0.487317
0.053892;0.0431326;0.0144603;0.488972
0.054391;0.043629;0.0145472;0.489927
0.05489;0.0440601;0.0151102;0.487635
0.055389;0.044448;0.0147915;0.486935
0.055888;0.0450186;0.0152882;0.485375
0.056387;0.045377;0.0159009;0.482001
0.056886;0.0458289;0.0159382;0.486489
0.057385;0.0463535;0.0163894;0.486967
0.057884;0.0467901;0.0165343;0.486362
0.058383;0.0472765;0.0166171;0.484452
0.058882;0.0478479;0.0169649;0.481747
0.059381;0.0482455;0.0175238;0.481078
0.05988;0.0480194;0.0174327;0.480187
0.060379;0.0476113;0.0169939;0.48302
0.060878;0.0471433;0.0167993;0.480824
0.061377;0.0465925;0.0166378;0.479996
0.061876;0.0460746;0.016319;0.478978
0.062375;0.0456503;0.0162611;0.480537
0.062874;0.0451606;0.0156732;0.477036
0.063373;0.0446334;0.0154787;0.478373
0.063872;0.0442192;0.0157767;0.483434
0.064371;0.0437404;0.0147832;0.482924
0.06487;0.0432904;0.0145638;0.483211
0.065369;0.0428297;0.0145597;0.485535
0.065868;0.0423431;0.0141788;0.479996
0.066367;0.0418507;0.0143734;0.486426
0.066866;0.041355;0.0133011;0.484739
0.067365;0.0409436;0.0129079;0.484166
0.067864;0.0403478;0.0129037;0.481238
0.068363;0.0398412;0.0122952;0.485566
0.068862;0.0393766;0.0124276;0.484134
0.069361;0.0389413;0.0122703;0.481365
0.06986;0.0383709;0.0116783;0.48563
0.070359;0.037926;0.0107759;0.48216
0.070858;0.0375252;0.0110201;0.482097
0.071357;0.0370229;0.0103867;0.484739
0.071856;0.036543;0.0103702;0.480378
0.072355;0.0360833;0.0104861;0.487794
0.072854;0.0355996;0.0103577;0.487158
0.073353;0.0350875;0.0103288;0.485025
0.073852;0.0345123;0.00999344;0.482574
0.074351;0.0340798;0.0100762;0.487794
0.07485;0.0334968;0.0100141;0.490054
0.075349;0.0330317;0.00924004;0.486839
0.075848;0.0326934;0.00839964;0.485312
0.076347;0.0321241;0.00825888;0.482956
0.076846;0.0315919;0.00837066;0.485757
0.077345;0.0311697;0.00825888;0.488017
0.077844;0.0306168;0.00785317;0.486235
0.078343;0.0300456;0.00747231;0.48598
0.078842;0.0295513;0.00726118;0.489832
0.079341;0.0291908;0.00745989;0.491646
0.07984;0.0286531;0.00687617;0.489927
0.080339;0.0281191;0.00702108;0.490882
0.080838;0.027687;0.00665263;0.489991
0.081337;0.0271038;0.006338;0.490532
0.081836;0.026477;0.00619312;0.486585
0.082335;0.0260566;0.00617656;0.485057
0.082834;0.0256066;0.00617242;0.486235
0.083333;0.0250855;0.00587437;0.486744
0.083832;0.0246304;0.00606893;0.489641
0.084331;0.0242091;0.0053445;0.486999
0.08483;0.0237483;0.0049098;0.485248
0.085329;0.0232241;0.00462002;0.489036
0.085828;0.0228236;0.00424329;0.487763
0.086327;0.0223439;0.00413151;0.487922
0.086826;0.0217824;0.00413151;0.485821
0.087325;0.0213038;0.00405699;0.487731
0.087824;0.0208102;0.00381689;0.486808
0.088323;0.0202657;0.00333255;0.488495
0.088822;0.0197623;0.00310071;0.489513
0.089321;0.0193804;0.00224377;0.486267
0.08982;0.0189146;0.00216511;0.487985
0.090319;0.0184191;0.0020285;0.488877
0.090818;0.0179543;0.00186704;0.485312
0.091317;0.0175161;0.00154;0.486712
0.091816;0.0170119;0.000836239;0.486044
0.092315;0.0166132;0.000364303;0.482988
0.092814;0.0161493;0.000173872;0.483275
0.093313;0.0155867;0;0.481269
0.093812;0.0151664;-4.1398e-06;0.48111
0.094311;0.01467;-0.000190431;0.487126
0.09481;0.0141321;-0.000447099;0.478596
0.095309;0.0136328;-0.000906615;0.477227
0.095808;0.0132172;-0.000583712;0.480696
0.096307;0.0127238;-0.000890056;0.479041
0.096806;0.0122758;-0.00148618;0.478691
0.097305;0.0118258;-0.00155242;0.4792
0.097804;0.0113955;-0.00177597;0.479169
0.098303;0.0107678;-0.0019871;0.479487
0.098802;0.0103425;-0.00205748;0.480728
0.099301;0.00983824;-0.00216511;0.482765
0.0998;0.00926877;-0.00225618;0.485789
0.100299;0.0086727;-0.00233485;0.487094
0.100798;0.00825032;-0.00288544;0.487794
0.101297;0.00776675;-0.00347742;0.488845
0.101796;0.00727432;-0.00380033;0.489863
0.102295;0.00685685;-0.00401559;0.490245
0.102794;0.00640288;-0.00413151;0.489991
0.103293;0.0059055;-0.00416049;0.491391
0.103792;0.0054456;-0.00445856;0.489641
0.104291;0.0050617;-0.00426813;0.490786
0.10479;0.00434916;-0.00525755;0.489545
0.105289;0.00389619;-0.00539416;0.487635
0.105788;0.00345606;-0.00539001;0.490245
0.106287;0.00288465;-0.00574603;0.488081
0.106786;0.00231819;-0.00606893;0.484389
0.107285;0.00183757;-0.00616;0.486362
0.107784;0.00141815;-0.00625521;0.483466
0.108283;0.00094148;-0.00628419;0.486617
0.108782;0.000466792;-0.0065036;0.48859
0.109281;2.96064e-05;-0.00699623;0.485503
0.10978;-0.000515149;-0.00755511;0.48407
0.110279;-0.000998718;-0.00815952;0.487253
0.110778;-0.00148624;-0.00826302;0.48754
0.111277;-0.00192836;-0.0082713;0.487667
0.111776;-0.00250471;-0.00846174;0.482734
0.112275;-0.00295275;-0.00846173;0.478214
0.112774;-0.00335342;-0.00941392;0.479678
0.113273;-0.00390901;-0.0089254;0.484834
0.113772;-0.00443107;-0.00972853;0.484834
0.114271;-0.00491664;-0.0103288;0.485312
0.11477;-0.00537159;-0.0104985;0.486076
0.115269;-0.0059351;-0.0106599;0.484834
0.115768;-0.00640682;-0.0110863;0.480665
0.116267;-0.0068391;-0.0108297;0.482638
0.116766;-0.00739077;-0.0112147;0.480123
0.117265;-0.00785553;-0.0115003;0.48423
0.117764;-0.00833324;-0.0123283;0.48111
0.118263;-0.00883748;-0.0122869;0.481556
0.118762;-0.00939114;-0.0123945;0.482161
0.119261;-0.00983328;-0.0125311;0.483115
0.11976;-0.0103967;-0.0129989;0.479837
0.120259;-0.0109771;-0.0138186;0.479105
0.120758;-0.011365;-0.0134088;0.480124
0.121257;-0.0118721;-0.0141664;0.477418
0.121756;-0.0123577;-0.0139594;0.48232
0.122255;-0.0128926;-0.0144603;0.481333
0.122754;-0.0132745;-0.0144355;0.481556
0.123253;-0.0138568;-0.0145803;0.481874
0.123752;-0.0143562;-0.0148122;0.480124
0.124251;-0.0148082;-0.0151434;0.480219
0.12475;-0.0152956;-0.0152676;0.485439
0.125249;-0.0158256;-0.0161079;0.482924
0.125748;-0.0162579;-0.0164971;0.480601
0.126247;-0.0166961;-0.0164143;0.485853
0.126746;-0.0172645;-0.016526;0.482192
0.127245;-0.0176828;-0.016526;0.484389
0.127744;-0.0181615;-0.0166254;0.483211
0.128243;-0.0186264;-0.0166088;0.481492
0.128742;-0.0191287;-0.0170228;0.476877
0.129241;-0.0194554;-0.0174782;0.48181
0.12974;-0.0199292;-0.0182234;0.480219
0.130239;-0.020528;-0.018302;0.478468
0.130738;-0.0209446;-0.0184345;0.482574
0.131237;-0.021359;-0.0185918;0.481842
0.131736;-0.0219471;-0.0185877;0.483847
0.132235;-0.0224506;-0.0187491;0.485375
0.132734;-0.0228156;-0.0194156;0.482574
0.133233;-0.0233743;-0.0194363;0.486044
0.133732;-0.0238884;-0.0203388;0.481938
0.134231;-0.0242179;-0.0203015;0.482447
0.13473;-0.024744;-0.0204174;0.486044
0.135229;-0.025272;-0.0206658;0.486108
0.135728;-0.025727;-0.0208107;0.48703
0.136227;-0.0261583;-0.0210384;0.489736
0.136726;-0.0267199;-0.0218913;0.48754
0.137225;-0.0271531;-0.0214193;0.4898
0.137724;-0.0276179;-0.0221728;0.485344
0.138223;-0.0282012;-0.0223218;0.487158
0.138722;-0.0287635;-0.0224874;0.485471
0.139221;-0.0291821;-0.0226944;0.488495
0.13972;-0.0296331;-0.0226406;0.488208
0.140219;-0.0301047;-0.0227483;0.487317
0.140718;-0.0305409;-0.0230504;0.483243
0.141217;-0.0310335;-0.023423;0.486489
0.141716;-0.0315327;-0.0233485;0.487603
0.142215;-0.032051;-0.0232533;0.485948
0.142714;-0.0325344;-0.0235431;0.486649
0.143213;-0.0331206;-0.0242716;0.482606
0.143712;-0.033622;-0.02476;0.483115
0.144211;-0.03399;-0.0247849;0.48267
0.14471;-0.0345073;-0.0247642;0.48493
0.145209;-0.0350717;-0.0249008;0.485312
0.145708;-0.0355167;-0.0253066;0.485471
0.146207;-0.0359609;-0.0263043;0.482702
0.146706;-0.0365491;-0.026354;0.484516
0.147205;-0.0369716;-0.0268426;0.479614
0.147704;-0.0374659;-0.0266811;0.479328
0.148203;-0.0379082;-0.0269212;0.478691
0.148702;-0.038446;-0.0269212;0.481811
0.149201;-0.0388751;-0.0271034;0.481142
0.1497;-0.0394002;-0.0276953;0.482192
0.150199;-0.0398916;-0.0281465;0.483497
0.150698;-0.0404237;-0.0286888;0.484707
0.151197;-0.0409031;-0.0289868;0.483879
0.151696;-0.0414706;-0.0288958;0.481174
0.152195;-0.0419564;-0.0288958;0.481938
0.152694;-0.0424091;-0.0292104;0.478055
0.153193;-0.0429481;-0.0290034;0.482988
0.153692;-0.0434692;-0.0295789;0.483275
0.154191;-0.043849;-0.0298852;0.481906
0.15469;-0.0444362;-0.03044;0.480569
0.155189;-0.0449287;-0.0301461;0.481842
0.155688;-0.0453869;-0.0306594;0.480537
0.156187;-0.0458229;-0.0309534;0.482383
0.156686;-0.0463733;-0.0309782;0.481524
0.157185;-0.0468602;-0.0309865;0.482543
0.157684;-0.0472647;-0.0311645;0.47936
0.158183;-0.0477935;-0.0315701;0.482574
0.158682;-0.0483838;-0.0321414;0.480123
0.159181;-0.0487235;-0.0321745;0.483975
0.15968;-0.048841;-0.0324601;0.483657
0.160179;-0.048439;-0.0319179;0.486107
0.160678;-0.0479641;-0.0320751;0.484484
0.161177;-0.0473576;-0.0319675;0.48754
0.161676;-0.0468433;-0.0313176;0.488017
0.162175;-0.0464413;-0.0309865;0.489959
0.162674;-0.0459237;-0.0309906;0.482606
0.163173;-0.0454154;-0.0309865;0.482129
0.163672;-0.0450767;-0.0309078;0.483307
0.164171;-0.0445831;-0.0307919;0.481556
0.16467;-0.0441166;-0.0307008;0.484866
0.165169;-0.0436259;-0.0305186;0.486521
0.165668;-0.0431414;-0.0301005;0.48528
0.166167;-0.042585;-0.0295415;0.490404
0.166666;-0.0419978;-0.0291275;0.489354
0.167165;-0.0415238;-0.0289413;0.482001
0.167664;-0.0409623;-0.0286474;0.483211
0.168163;-0.040412;-0.028548;0.487094
0.168662;-0.0400969;-0.0287468;0.48232
0.169161;-0.0395097;-0.0285687;0.482224
0.16966;-0.03904;-0.0283949;0.481301
0.170159;-0.0385693;-0.0272441;0.480696
0.170658;-0.0381598;-0.026855;0.48302
0.171157;-0.0376071;-0.0270413;0.481588
0.171656;-0.0371137;-0.0267142;0.478118
0.172155;-0.0366526;-0.0262712;0.483593
0.172654;-0.0360566;-0.0264824;0.47971
0.173153;-0.0354801;-0.0252072;0.485152
0.173652;-0.0350934;-0.0252485;0.483529
0.174151;-0.0346504;-0.0248346;0.481747
0.17465;-0.0340936;-0.0247435;0.481301
0.175149;-0.0337335;-0.0245655;0.480951
0.175648;-0.033235;-0.0243337;0.485821
0.176147;-0.0327338;-0.0239446;0.481747
0.176646;-0.0322593;-0.0236258;0.480219
0.177145;-0.0317508;-0.0235058;0.481238
0.177644;-0.0311924;-0.0228724;0.485312
0.178143;-0.0307313;-0.0227234;0.48458
0.178642;-0.0302469;-0.0227027;0.485534
0.179141;-0.0297418;-0.0227027;0.484898
0.17964;-0.029255;-0.0225122;0.486171
0.180139;-0.0287844;-0.0220941;0.485343
0.180638;-0.0282947;-0.0222928;0.48302
0.181137;-0.0277492;-0.0215559;0.487572
0.181636;-0.0272213;-0.0215352;0.484802
0.182135;-0.0268194;-0.0209928;0.48372
0.182634;-0.0263665;-0.0207527;0.483243
0.183133;-0.0258818;-0.0207445;0.482511
0.183632;-0.0254754;-0.0204754;0.481269
0.184131;-0.024965;-0.019929;0.484039
0.18463;-0.0244134;-0.0199703;0.482733
0.185129;-0.0239793;-0.0201566;0.478373
0.185628;-0.0234472;-0.0191921;0.478596
0.186127;-0.0228907;-0.0186001;0.478819
0.186626;-0.022489;-0.0184801;0.484261
0.187125;-0.0219976;-0.0185173;0.483561
0.187624;-0.0215318;-0.0181323;0.482924
0.188123;-0.0210531;-0.0179584;0.483211
0.188622;-0.0206691;-0.0181158;0.480569
0.189121;-0.0201472;-0.0172588;0.482829
0.18962;-0.0196439;-0.016733;0.480633
0.190119;-0.019187;-0.0166709;0.482161
0.190618;-0.0187389;-0.0165219;0.480378
0.191117;-0.0182029;-0.016526;0.479837
0.191616;-0.0177697;-0.016526;0.477959
0.192115;-0.0172882;-0.0162942;0.479264
0.192614;-0.0168293;-0.0156857;0.478914
0.193113;-0.0163299;-0.0156194;0.477641
0.193612;-0.0158996;-0.0157229;0.477959
0.194111;-0.0154357;-0.0152344;0.479678
0.19461;-0.0149484;-0.0147335;0.480728
0.195109;-0.0144331;-0.0145969;0.479041
0.195608;-0.014065;-0.0145141;0.481429
0.196107;-0.0135883;-0.0144603;0.478596
0.196606;-0.0130169;-0.0144023;0.478628
0.197105;-0.0126281;-0.0139345;0.478659
0.197604;-0.0120647;-0.0137896;0.480442
0.198103;-0.0115357;-0.0131438;0.479073
0.198602;-0.010979;-0.0125146;0.480028
0.199101;-0.0105477;-0.0126015;0.479041
0.1996;-0.00988264;-0.0127919;0.482288
0.200099;-0.00946716;-0.0123904;0.484675
0.200598;-0.00899538;-0.0123862;0.485821
0.201097;-0.00856614;-0.0122703;0.485503
0.201596;-0.00805687;-0.0117942;0.486298
0.202095;-0.0076444;-0.011136;0.484516
0.202594;-0.00712133;-0.0104695;0.490341
0.203093;-0.00657261;-0.0104571;0.485375
0.203592;-0.006095;-0.0103329;0.486203
0.204091;-0.00556896;-0.0103288;0.490277
0.20459;-0.00505776;-0.0102211;0.48719
0.205089;-0.00450016;-0.00926487;0.487763
0.205588;-0.00410836;-0.00900818;0.485948
0.206087;-0.00349455;-0.00858594;0.487826
0.206586;-0.0030475;-0.00856524;0.485534
0.207085;-0.00256885;-0.00828786;0.483211
0.207584;-0.00214942;-0.00826302;0.483275
0.208083;-0.00162638;-0.00826302;0.485916
0.208582;-0.00119116;-0.00801876;0.485312
0.209081;-0.000773711;-0.00806844;0.483529
0.20958;-0.000138163;-0.00750957;0.487094
0.210079;0.000276326;-0.00786559;0.483879
0.210578;0.000779632;-0.00647876;0.487317
0.211077;0.00123163;-0.0064415;0.487635
0.211576;0.00171322;-0.00616828;0.485025
0.212075;0.00213659;-0.00615586;0.479742
0.212574;0.00267347;-0.00607721;0.483466
0.213073;0.00327546;-0.00613516;0.482288
0.213572;0.00378961;-0.00587436;0.481715
0.214071;0.00421297;-0.00492638;0.48197
0.21457;0.00469261;-0.00426399;0.479964
0.215069;0.00518014;-0.00422259;0.482288
0.215568;0.00561142;-0.00422259;0.478437
0.216067;0.00617095;-0.00415221;0.47885
0.216566;0.00667034;-0.0040363;0.482638
0.217065;0.00714111;-0.00364302;0.482638
0.217564;0.00765126;-0.00351469;0.480155
0.218063;0.00817434;-0.00300964;0.48111
0.218562;0.0086263;-0.00272812;0.479264
0.219061;0.0091089;-0.00242592;0.483084
0.21956;0.00964377;-0.00206576;0.482511
0.220059;0.0101293;-0.00211543;0.483561
0.220558;0.010533;-0.00207404;0.484484
0.221057;0.0109504;-0.00204092;0.484261
0.221556;0.011589;-0.0018629;0.483243
0.222055;0.0120359;-0.00118398;0.482765
0.222554;0.0125205;-0.000948013;0.484261
0.223053;0.0130742;-0.00062925;0.487253
0.223552;0.0135568;-0.000264947;0.484898
0.224051;0.0139881;-0.000115914;0.489609
0.22455;0.0145289;-6.62368e-05;0.487667
0.225049;0.014965;-0.000248388;0.488081
0.225548;0.0153973;0.000244248;0.489704
0.226047;0.0159193;0.000169732;0.48668
0.226546;0.0164661;0.000476078;0.485598
0.227045;0.0168806;0.000877636;0.482033
0.227544;0.0173198;0.00141581;0.486744
0.228043;0.0177983;0.00131231;0.484325
0.228542;0.0182385;0.0016435;0.486903
0.229041;0.0187113;0.00206576;0.489099
0.22954;0.0191751;0.00207403;0.48894
0.230039;0.0196932;0.0019457;0.486521
0.230538;0.0201423;0.00211957;0.482702
0.231037;0.0206445;0.00247561;0.481238
0.231536;0.0212534;0.00298065;0.481492
0.232035;0.0217143;0.00346087;0.481938
0.232534;0.0221386;0.00332839;0.484261
0.233033;0.0226697;0.00410253;0.488558
0.233532;0.0230988;0.00414393;0.486585
0.234031;0.0234927;0.00426399;0.485789
0.23453;0.0240029;0.00419361;0.485121
0.235029;0.0244508;0.00454963;0.483338
0.235528;0.0249701;0.00563425;0.484166
0.236027;0.0255069;0.0060979;0.486139
0.236526;0.0260073;0.00616414;0.48337
0.237025;0.0265075;0.00619726;0.487667
0.237524;0.0269282;0.00619726;0.487158
0.238023;0.0274531;0.00655742;0.485566
0.238522;0.0280046;0.00697554;0.487126
0.239021;0.0284163;0.00774968;0.488749
0.23952;0.0288977;0.00745988;0.48267
0.240019;0.0294141;0.0076586;0.481906
0.240518;0.0298561;0.00822162;0.479869
0.241017;0.0303148;0.0082713;0.482543
0.241516;0.0309724;0.00826302;0.479201
0.242015;0.0314014;0.00830856;0.478532
0.242514;0.0319869;0.0086646;0.480505
0.243013;0.032494;0.00917379;0.482574
0.243512;0.0329488;0.00914069;0.481365
0.244011;0.033332;0.00981543;0.480633
0.24451;0.0338874;0.00967057;0.480219
0.245009;0.0343919;0.00942629;0.477386
0.245508;0.0348753;0.00974094;0.478437
0.246007;0.0353025;0.0101549;0.478437
0.246506;0.0358523;0.0104778;0.482097
0.247005;0.036246;0.0104819;0.481651
0.247504;0.0366884;0.0104488;0.481492
0.248003;0.0372607;0.0112892;0.484198
0.248502;0.0378144;0.0117777;0.482829
0.249001;0.0382476;0.01167;0.486107
0.2495;0.0387775;0.0120964;0.485121
0.249999;0.0393015;0.0123324;0.485025
0.250498;0.0397159;0.0123738;0.481524
0.250997;0.0401376;0.0124442;0.485407
0.251496;0.0406731;0.0127091;0.482447
0.251995;0.0411961;0.0130403;0.487731
0.252494;0.0416089;0.0135827;0.486585
0.252993;0.0421094;0.0142078;0.486139
