t;vds;corrente;vg
0.000499;0.0192412;0.00193022;0.0599514
0.000998;0.0196231;0.00215683;0.0635286
0.001497;0.0201285;0.00268673;0.0635286
0.001996;0.0206326;0.00323733;0.0635286
0.002495;0.0211331;0.00339049;0.0635286
0.002994;0.0215515;0.00358092;0.0635286
0.003493;0.0221781;0.00409425;0.0635286
0.003992;0.0225621;0.00411495;0.0635286
0.004491;0.0230761;0.00383345;0.0635286
0.00499;0.023552;0.00413151;0.0635286
0.005489;0.0239999;0.00446684;0.0635286
0.005988;0.0245238;0.00487667;0.0635286
0.006487;0.0250057;0.00534034;0.0635286
0.006986;0.0254941;0.00588677;0.0635286
0.007485;0.0260122;0.00614344;0.0635286
0.007984;0.0265292;0.00617656;0.0635286
0.008483;0.0269627;0.00622209;0.0635286
0.008982;0.0274254;0.00641666;0.0635286
0.009481;0.0279701;0.00624279;0.0635286
0.00998;0.0284183;0.00661124;0.0636877
0.010479;0.0289056;0.00689687;0.0635286
0.010978;0.0292927;0.00734811;0.063815
0.011477;0.029789;0.00783662;0.0635604
0.011976;0.0304471;0.00826302;0.0642288
0.012475;0.0310384;0.00831684;0.0637195
0.012974;0.0315297;0.00840792;0.063815
0.013473;0.0319504;0.00871428;0.0635286
0.013972;0.03249;0.0083541;0.0635286
0.014471;0.0329251;0.00880118;0.0635286
0.01497;0.0333991;0.00871428;0.0635286
0.015469;0.033845;0.00952565;0.0635286
0.015968;0.034382;0.00993553;0.0635604
0.016467;0.0347589;0.0101011;0.0635286
0.016966;0.0352335;0.010337;0.0635286
0.017465;0.0358227;0.0105647;0.0635286
0.017964;0.0362806;0.0103619;0.0635286
0.018463;0.0367713;0.0106682;0.0637832
0.018962;0.0373535;0.0108959;0.0635286
0.019461;0.0377947;0.0108462;0.0635286
0.01996;0.0383028;0.0107883;0.0635286
0.020459;0.0387538;0.0111567;0.0635286
0.020958;0.0392778;0.0114423;0.0635286
0.021457;0.0396686;0.0120882;0.0635286
0.021956;0.040178;0.0123945;0.0635286
0.022455;0.0406475;0.012556;0.0635286
0.022954;0.0411123;0.0124814;0.0635286
0.023453;0.0415516;0.0125311;0.0635286
0.023952;0.0420807;0.0130734;0.0635286
0.024451;0.0425769;0.0139842;0.0635286
0.02495;0.0431266;0.0143278;0.0635286
0.025449;0.0436172;0.0144437;0.0635286
0.025948;0.0440432;0.01463;0.0635286
0.026447;0.0445536;0.0152344;0.0635286
0.026946;0.045068;0.0156774;0.0635286
0.027445;0.0455458;0.0155822;0.0635286
0.027944;0.0459077;0.0162321;0.0639423
0.028443;0.0463585;0.0163232;0.0635286
0.028942;0.0468809;0.0163108;0.0635286
0.029441;0.0473071;0.0164598;0.0635286
0.02994;0.0477728;0.0165385;0.0635286
0.030439;0.0482149;0.0165426;0.0635286
0.030938;0.0478754;0.0165178;0.0635286
0.031437;0.0473418;0.0167537;0.0635286
0.031936;0.0468453;0.0164184;0.0635286
0.032435;0.0465282;0.016406;0.0635286
0.032934;0.0459523;0.0155491;0.0635286
0.033433;0.0454588;0.0153379;0.0635286
0.033932;0.0450737;0.0148412;0.0635286
0.034431;0.0445752;0.0145845;0.0635286
0.03493;0.0440179;0.0145803;0.0635286
0.035429;0.0436319;0.0147708;0.0635286
0.035928;0.0431256;0.0142699;0.0635286
0.036427;0.04259;0.0133011;0.0635286
0.036926;0.0420954;0.0134171;0.0635286
0.037425;0.0417203;0.0133218;0.0635286
0.037924;0.041201;0.0131645;0.0635286
0.038423;0.0407099;0.0128457;0.0635286
0.038922;0.0402322;0.0123159;0.0635286
0.039421;0.0397643;0.0122869;0.0635286
0.03992;0.0392197;0.0123945;0.0635286
0.040419;0.0388357;0.0119474;0.0635286
0.040918;0.0383275;0.0122041;0.0635286
0.041417;0.0377888;0.0112395;0.0635286
0.041916;0.0373494;0.0103246;0.0635286
0.042415;0.036859;0.0104198;0.0635286
0.042914;0.0362579;0.0104902;0.0635286
0.043413;0.0357754;0.0101135;0.0635286
0.043912;0.0353509;0.010246;0.063815
0.044411;0.0348635;0.00986926;0.0641651
0.04491;0.0343603;0.00892126;0.0636877
0.045409;0.0338499;0.00878879;0.0636877
0.045908;0.0334286;0.00834167;0.0635286
0.046407;0.032937;0.00851556;0.0637832
0.046906;0.0324861;0.00830442;0.0636877
0.047405;0.0320244;0.00813055;0.0635286
0.047904;0.0314755;0.0080229;0.0642606
0.048403;0.0308666;0.00807258;0.0635286
0.048902;0.0304107;0.00773725;0.0635286
0.049401;0.0299026;0.0077;0.0635286
0.0499;0.0294041;0.00715768;0.0635286
0.050399;0.028957;0.00650774;0.0635286
0.050898;0.0284497;0.00630903;0.0635286
0.051397;0.0280076;0.00619726;0.0635286
0.051896;0.0275143;0.00619726;0.0635286
0.052395;0.027014;0.00618898;0.0635286
0.052894;0.02648;0.00608135;0.0635286
0.053393;0.0260201;0.00594889;0.0635286
0.053892;0.0256144;0.0058247;0.0636559
0.054391;0.0250401;0.00599028;0.0635922
0.05489;0.0244983;0.00463658;0.0635286
0.055389;0.0240769;0.0044834;0.0635286
0.055888;0.0235657;0.00430539;0.0635286
0.056387;0.0231412;0.00454964;0.0635286
0.056886;0.0226114;0.00425985;0.0635286
0.057385;0.0221978;0.00413151;0.0639423
0.057884;0.0217499;0.00424743;0.0641333
0.058383;0.0212505;0.00392452;0.0635286
0.058882;0.0207392;0.00370926;0.0635286
0.059381;0.020163;0.00332426;0.0635286
0.05988;0.0196912;0.00273641;0.0635286
0.060379;0.0192679;0.00274884;0.0635286
0.060878;0.0187645;0.00220651;0.0636559
0.061377;0.0182118;0.00203264;0.0635286
0.061876;0.0177292;0.00201194;0.0635604
0.062375;0.0172852;0.0018629;0.0635604
0.062874;0.0168639;0.00100597;0.0635286
0.063373;0.0163595;0.00119226;0.0642288
0.063872;0.0160042;0.000314625;0.0635286
0.064371;0.0154703;4.96776e-05;0.063815
0.06487;0.014974;-2.48388e-05;0.0640696
0.065369;0.0145773;-0.000393281;0.0637195
0.065868;0.0141203;-0.000368442;0.0635286
0.066367;0.0135597;-0.000136613;0.0637832
0.066866;0.0130297;-0.00062925;0.0635922
0.067365;0.0125491;-0.00145307;0.0635286
0.067864;0.0119966;-0.00163522;0.063815
0.068363;0.011509;-0.0015607;0.0636877
0.068862;0.0110945;-0.00204506;0.0635286
0.069361;0.0105625;-0.00199124;0.063815
0.06986;0.0101076;-0.00212371;0.0635922
0.070359;0.00966357;-0.00272813;0.0635286
0.070858;0.00914539;-0.00309657;0.0635286
0.071357;0.00858094;-0.00346501;0.0635604
0.071856;0.00812694;-0.00363474;0.0637514
0.072355;0.00769966;-0.00417291;0.0635286
0.072854;0.00713219;-0.00419775;0.0635604
0.073353;0.00662689;-0.00414807;0.0642288
0.073852;0.00617591;-0.00456619;0.0635286
0.074351;0.00566666;-0.00467797;0.0635286
0.07485;0.00518604;-0.00539001;0.0635286
0.075349;0.00470051;-0.0059406;0.0635286
0.075848;0.00421594;-0.00603995;0.0635286
0.076347;0.00368402;-0.00608962;0.0637195
0.076846;0.00320935;-0.00620554;0.0635286
0.077345;0.00272773;-0.00647875;0.0636559
0.077844;0.00219383;-0.0069507;0.0635922
0.078343;0.00170731;-0.0072943;0.063624
0.078842;0.00135203;-0.00679339;0.0636559
0.079341;0.000844766;-0.00769999;0.0639105
0.07984;0.000322709;-0.00815952;0.0635922
0.080339;-0.00013619;-0.00813055;0.064197
0.080838;-0.00067601;-0.0081057;0.0635286
0.081337;-0.00125235;-0.0082506;0.0635286
0.081836;-0.00158394;-0.008292;0.0636241
0.082335;-0.0019856;-0.00830028;0.0635286
0.082834;-0.00257182;-0.00920279;0.0635286
0.083333;-0.00306525;-0.00941802;0.0635286
0.083832;-0.0034679;-0.0100307;0.0635286
0.084331;-0.00390408;-0.00999758;0.0635286
0.08483;-0.00446363;-0.0103495;0.0635286
0.085329;-0.00496105;-0.0103412;0.0635286
0.085828;-0.00555319;-0.0103826;0.0635604
0.086327;-0.00603081;-0.0106641;0.0635286
0.086826;-0.0066131;-0.0110739;0.0635286
0.087325;-0.00719045;-0.0116949;0.0635286
0.087824;-0.00762758;-0.0119805;0.0635286
0.088323;-0.00809341;-0.0122579;0.0635286
0.088822;-0.00851874;-0.0123862;0.0635286
0.089321;-0.00903488;-0.0122993;0.0635604
0.08982;-0.00954212;-0.0124442;0.0635286
0.090319;-0.00995466;-0.0129037;0.0635286
0.090818;-0.010455;-0.0128044;0.0635286
0.091317;-0.0109672;-0.0133715;0.0635286
0.091816;-0.0114153;-0.0133839;0.0635286
0.092315;-0.0120073;-0.0137275;0.0635286
0.092814;-0.0124939;-0.0131024;0.063274
0.093313;-0.0129923;-0.0138849;0.0634967
0.093812;-0.0135222;-0.0142616;0.0635286
0.094311;-0.0140384;-0.014245;0.0635286
0.09481;-0.0145427;-0.0147583;0.0635286
0.095309;-0.0149502;-0.01463;0.0635286
0.095808;-0.015414;-0.0156649;0.0635286
0.096307;-0.0159223;-0.0154662;0.0635286
0.096806;-0.0163605;-0.0160583;0.0635286
0.097305;-0.0168372;-0.0165012;0.0635286
0.097804;-0.0172901;-0.0163811;0.0635286
0.098303;-0.0177105;-0.0164474;0.0635286
0.098802;-0.0182494;-0.0165716;0.0635286
0.099301;-0.0187231;-0.0167579;0.0635286
0.0998;-0.0192392;-0.0170766;0.0635286
0.100299;-0.0197248;-0.0174327;0.0635286
0.100798;-0.0201482;-0.0172588;0.0635286
0.101297;-0.0206198;-0.0178177;0.0635286
0.101796;-0.0211627;-0.018538;0.0635286
0.102295;-0.0216117;-0.0184594;0.0635286
0.102794;-0.0220597;-0.0185918;0.0635286
0.103293;-0.0225276;-0.0186456;0.0635286
0.103792;-0.0230504;-0.0191093;0.0635286
0.104291;-0.0235273;-0.0190058;0.0635286
0.10479;-0.0239279;-0.0194736;0.0635286
0.105289;-0.0243343;-0.0201069;0.0635286
0.105788;-0.0249405;-0.020641;0.0635286
0.106287;-0.0254378;-0.0206451;0.0635286
0.106786;-0.0259323;-0.0207445;0.0635286
0.107285;-0.0264631;-0.021204;0.0635286
0.107784;-0.0269272;-0.0209266;0.0635286
0.108283;-0.0274225;-0.0207445;0.0635286
0.108782;-0.0279089;-0.0223757;0.0635286
0.109281;-0.0283294;-0.0227027;0.0635286
0.10978;-0.0288642;-0.0227234;0.0635286
0.110279;-0.0293075;-0.0226737;0.0635286
0.110778;-0.029785;-0.0229428;0.0635286
0.111277;-0.0301965;-0.0227317;0.0635286
0.111776;-0.0307009;-0.0231953;0.0635286
0.112275;-0.0311894;-0.0238328;0.0635286
0.112774;-0.0317944;-0.0237873;0.0635286
0.113273;-0.0323608;-0.0237956;0.0635286
0.113772;-0.0328116;-0.0246358;0.0635286
0.114271;-0.0333201;-0.024789;0.0635286
0.11477;-0.0337966;-0.0247559;0.0635286
0.115269;-0.0342398;-0.0248677;0.0635286
0.115768;-0.0347105;-0.0250747;0.0635286
0.116267;-0.0351743;-0.0254598;0.0635286
0.116766;-0.0356282;-0.0263085;0.0635286
0.117265;-0.036104;-0.0260683;0.0635286
0.117764;-0.0366479;-0.0263913;0.0635286
0.118263;-0.0371384;-0.0268136;0.0635286
0.118762;-0.0376228;-0.0269502;0.0635286
0.119261;-0.0382051;-0.0275794;0.0631466
0.11976;-0.0385752;-0.0276746;0.0635286
0.120259;-0.0390764;-0.0277988;0.0635286
0.120758;-0.0396341;-0.0284652;0.0635286
0.121257;-0.0400852;-0.0285315;0.0635286
0.121756;-0.0405745;-0.0285273;0.0635286
0.122255;-0.0410708;-0.0286681;0.0635286
0.122754;-0.0415299;-0.0288337;0.0633694
0.123253;-0.0420531;-0.0290697;0.0635286
0.123752;-0.0425847;-0.0292891;0.0635286
0.124251;-0.0431128;-0.0293678;0.0635286
0.12475;-0.0436033;-0.0299723;0.0631466
0.125249;-0.0440916;-0.0301378;0.0635286
0.125748;-0.0445921;-0.0301667;0.0633376
0.126247;-0.0451312;-0.0302992;0.0635286
0.126746;-0.0456069;-0.0309865;0.0635286
0.127245;-0.0460279;-0.0309865;0.0635286
0.127744;-0.0465373;-0.0312266;0.0627011
0.128243;-0.047026;-0.031479;0.0635286
0.128742;-0.0474511;-0.0317813;0.0635286
0.129241;-0.047992;-0.0320751;0.0635286
0.12974;-0.0484283;-0.0321456;0.0635286
0.130239;-0.0488793;-0.0325636;0.0635286
0.130738;-0.0488064;-0.0323897;0.0635286
0.131237;-0.0483768;-0.031773;0.0635286
0.131736;-0.0478438;-0.0318185;0.0635286
0.132235;-0.0473496;-0.0310527;0.0635286
0.132734;-0.0469509;-0.0309865;0.0635286
0.133233;-0.0464739;-0.0310072;0.0635286
0.133732;-0.045899;-0.0308457;0.0635286
0.134231;-0.0454519;-0.030825;0.0635286
0.13473;-0.044968;-0.0303489;0.0635286
0.135229;-0.0444391;-0.030353;0.0635286
0.135728;-0.0439379;-0.0306718;0.0635286
0.136227;-0.043548;-0.0304482;0.0635604
0.136726;-0.0429668;-0.0297774;0.0635286
0.137225;-0.0424369;-0.0291731;0.0635286
0.137724;-0.041903;-0.0290075;0.0635286
0.138223;-0.0413875;-0.0289206;0.0635286
0.138722;-0.0408981;-0.028813;0.0635286
0.139221;-0.0404327;-0.0288171;0.0637195
0.13972;-0.040008;-0.028635;0.0636877
0.140219;-0.0394594;-0.0284363;0.0635286
0.140718;-0.0389354;-0.0282169;0.0635286
0.141217;-0.0384913;-0.0271696;0.0636559
0.141716;-0.0379328;-0.0269171;0.0636559
0.142215;-0.0374423;-0.0267142;0.0635922
0.142714;-0.0369795;-0.0265238;0.063624
0.143213;-0.0364868;-0.0263333;0.0635286
0.143712;-0.0359757;-0.0257619;0.0635286
0.144211;-0.0355157;-0.025675;0.0635286
0.14471;-0.0350717;-0.0253521;0.0635286
0.145209;-0.0345587;-0.0250913;0.0635286
0.145708;-0.0342338;-0.0248139;0.0635286
0.146207;-0.0337592;-0.0247642;0.0635286
0.146706;-0.0332242;-0.0245158;0.0635286
0.147205;-0.0326588;-0.0238204;0.0635604
0.147704;-0.0321774;-0.0242385;0.0635286
0.148203;-0.0316067;-0.0242467;0.0635286
0.148702;-0.0310158;-0.0229553;0.0635286
0.149201;-0.0305892;-0.0228849;0.0635286
0.1497;-0.0301749;-0.0227234;0.0635286
0.150199;-0.0297763;-0.0227193;0.0635286
0.150698;-0.0292678;-0.0227234;0.0635286
0.151197;-0.0287883;-0.0225785;0.0635286
0.151696;-0.0283006;-0.0224046;0.0635286
0.152195;-0.0277935;-0.0224667;0.0635286
0.152694;-0.0273417;-0.0220858;0.0635286
0.153193;-0.0267552;-0.0213199;0.0635286
0.153692;-0.0262303;-0.021026;0.0635286
0.154191;-0.025722;-0.0207445;0.0635286
0.15469;-0.0253698;-0.0208314;0.0634967
0.155189;-0.0247903;-0.0207445;0.0635286
0.155688;-0.0243414;-0.0206327;0.0635286
0.156187;-0.0238944;-0.0206741;0.0635286
0.156686;-0.0233801;-0.0199579;0.0633376
0.157185;-0.0229252;-0.0201152;0.0634331
0.157684;-0.0224643;-0.0186456;0.0635286
0.158183;-0.0219808;-0.0186788;0.0635286
0.158682;-0.0214943;-0.0183517;0.0635286
0.159181;-0.0210116;-0.0184635;0.0635286
0.15968;-0.0205409;-0.0185877;0.0635286
0.160179;-0.0200268;-0.0182399;0.0635286
0.160678;-0.0194949;-0.0179543;0.0635286
0.161177;-0.0190873;-0.0177804;0.0635286
0.161676;-0.0186343;-0.0172381;0.0635286
0.162175;-0.0180747;-0.016613;0.0635286
0.162674;-0.0176947;-0.0165674;0.0635286
0.163173;-0.0171649;-0.016526;0.0635286
0.163672;-0.0167336;-0.016435;0.0635286
0.164171;-0.0162875;-0.0164971;0.0635286
0.16467;-0.0158946;-0.0162983;0.0635286
0.165169;-0.0153212;-0.0150812;0.0635286
0.165668;-0.0149336;-0.0157395;0.0635286
0.166167;-0.0143769;-0.014659;0.0635286
0.166666;-0.0139091;-0.0146259;0.0634649
0.167165;-0.0134077;-0.0146383;0.0635286
0.167664;-0.0129755;-0.0145141;0.0635286
0.168163;-0.0123814;-0.0143651;0.0635286
0.168662;-0.0118396;-0.0143154;0.0631785
0.169161;-0.0114104;-0.0139552;0.0635286
0.16966;-0.0109504;-0.0129492;0.0635286
0.170159;-0.0103957;-0.0128416;0.0635286
0.170658;-0.00994873;-0.0126926;0.0631467
0.171157;-0.00944643;-0.0124483;0.0629557
0.171656;-0.00900623;-0.0122538;0.0632421
0.172155;-0.00850693;-0.0121461;0.0635286
0.172654;-0.00803318;-0.0117032;0.0635286
0.173153;-0.007525;-0.0111153;0.0635286
0.173652;-0.00702759;-0.0106806;0.0635286
0.174151;-0.00650353;-0.0107386;0.0635286
0.17465;-0.0060111;-0.0107345;0.0635286
0.175149;-0.00543968;-0.0103288;0.0634331
0.175648;-0.00501138;-0.0103205;0.0634649
0.176147;-0.00446758;-0.00943463;0.0635286
0.176646;-0.0039031;-0.0091241;0.0635286
0.177145;-0.00343731;-0.00908683;0.0635286
0.177644;-0.00301888;-0.00920276;0.0635286
0.178143;-0.00258365;-0.00874323;0.0635286
0.178642;-0.00207145;-0.00889226;0.0635286
0.179141;-0.00160073;-0.00849072;0.0635286
0.17964;-0.00110234;-0.00825474;0.0635286
0.180139;-0.000608903;-0.00797322;0.0635286
0.180638;-3.94752e-05;-0.00778279;0.0635286
0.181137;0.000334551;-0.00659467;0.0635286
0.181636;0.00089707;-0.00648289;0.0635286
0.182135;0.00139644;-0.00619726;0.0635286
0.182634;0.00176552;-0.00614344;0.0635286
0.183133;0.00224219;-0.00622624;0.0635286
0.183632;0.00270604;-0.00619312;0.0635286
0.184131;0.00315703;-0.00618484;0.0635286
0.18463;0.00369586;-0.00590747;0.0635286
0.185129;0.00427119;-0.00554317;0.0635286
0.185628;0.00484459;-0.005241;0.0635286
0.186127;0.00529461;-0.00483116;0.0635286
0.186626;0.00575846;-0.00440061;0.0635286
0.187125;0.00630517;-0.00413151;0.0635286
0.187624;0.00672955;-0.00416049;0.0635286
0.188123;0.0072467;-0.00409425;0.0635286
0.188622;0.00765422;-0.00396178;0.0635286
0.189121;0.00821382;-0.00355609;0.0635286
0.18962;0.00874273;-0.0033284;0.0635286
0.190119;0.00921353;-0.00228103;0.0639105
0.190618;0.00967931;-0.00218167;0.0635286
0.191117;0.0101816;-0.0021113;0.0635286
0.191616;0.0106642;-0.00197468;0.0635286
0.192115;0.0111123;-0.00204092;0.0635286
0.192614;0.0116659;-0.00191672;0.0635604
0.193113;0.0121988;-0.00170145;0.0635286
0.193612;0.0126873;-0.00134543;0.0635286
0.194111;0.0131324;-0.00175941;0.0635286
0.19461;0.0135834;-0.00112602;0.0635286
0.195109;0.014147;-0.000260807;0.0635286
0.195608;0.0145763;-0.000890056;0.0635286
0.196107;0.0150429;-0.000459518;0.0635286
0.196606;0.0155236;-0.000322905;0.0635286
0.197105;0.0160269;-0.000351883;0.0635286
0.197604;0.0163881;-0.000244248;0.0635286
0.198103;0.0168994;-4.1398e-05;0.0635286
0.198602;0.0174066;0.000327044;0.0635286
0.199101;0.017819;0.000496777;0.0635286
0.1996;0.018357;0.00109291;0.0635286
0.200099;0.0188691;0.00175527;0.0635286
0.200598;0.0193122;0.00139097;0.0635286
0.201097;0.0198295;0.00206576;0.0635286
0.201596;0.0203544;0.00216097;0.0635286
0.202095;0.0207916;0.0020699;0.0635286
0.202594;0.0212722;0.00241764;0.0635286
0.203093;0.021738;0.00367199;0.0635286
0.203592;0.0222186;0.00412737;0.0635286
0.204091;0.0226914;0.00419361;0.0635286
0.20459;0.0231897;0.00441303;0.0635286
0.205089;0.0236624;0.0045041;0.0635286
0.205588;0.0241074;0.0050878;0.0635286
0.206087;0.0245841;0.0053362;0.0635286
0.206586;0.0251033;0.00503812;0.0635286
0.207085;0.0255947;0.00612274;0.0635286
0.207584;0.0260487;0.00619726;0.0635286
0.208083;0.0265707;0.00619726;0.0635286
0.208582;0.0270851;0.00630903;0.0635286
0.209081;0.0275468;0.00642908;0.0635286
0.20958;0.0279908;0.00623037;0.0635286
0.210079;0.0284932;0.00639597;0.0635286
0.210578;0.0289648;0.00681821;0.0635286
0.211077;0.0293993;0.00648289;0.0635286
0.211576;0.0299449;0.00739365;0.0635286
0.212075;0.0304451;0.00707903;0.0635286
0.212574;0.0310059;0.00724049;0.0635286
0.213073;0.0315475;0.00819678;0.0635286
0.213572;0.0320135;0.00823404;0.0635286
0.214071;0.0324338;0.00821334;0.0635286
0.21457;0.0329823;0.00826302;0.0635286
0.215069;0.0334958;0.00827544;0.0635286
0.215568;0.033921;0.0086232;0.0635286
0.216067;0.0343859;0.0091986;0.0635286
0.216566;0.0348822;0.00947602;0.0635286
0.217065;0.0353617;0.00984441;0.0635286
0.217564;0.0358158;0.0103246;0.0635286
0.218063;0.0364227;0.0104405;0.0635286
0.218562;0.0369795;0.010395;0.0635286
0.219061;0.0374442;0.0103784;0.0635286
0.21956;0.0379921;0.010573;0.0635286
0.220059;0.0384292;0.0104488;0.0635286
0.220558;0.0388959;0.0108421;0.0635286
0.221057;0.0392995;0.0117735;0.0635286
0.221556;0.0398314;0.0122538;0.0635286
0.222055;0.0403429;0.0124276;0.0635286
0.222554;0.0408103;0.0127133;0.0635286
0.223053;0.0412948;0.0126388;0.0635286
0.223552;0.0417787;0.0131521;0.0635286
0.224051;0.0421725;0.0133011;0.0635286
0.22455;0.0426598;0.0143278;0.0635286
0.225049;0.0432313;0.0142823;0.0635286
0.225548;0.0437957;0.0144479;0.0635286
0.226047;0.0441795;0.0149861;0.0635286
0.226546;0.0446602;0.0146176;0.0635286
0.227045;0.0451865;0.0149736;0.0635286
0.227544;0.0456622;0.0157188;0.0635286
0.228043;0.0460683;0.0158057;0.0635286
0.228542;0.0465807;0.016348;0.0635286
0.229041;0.0469994;0.0163936;0.0635286
0.22954;0.0474233;0.0165012;0.0635286
0.230039;0.0479041;0.0165716;0.0635286
0.230538;0.0482267;0.0166627;0.0635286
0.231037;0.047695;0.0167496;0.0635286
0.231536;0.0473102;0.0162404;0.0635286
0.232035;0.0468522;0.015843;0.0635286
0.232534;0.046389;0.0160417;0.0635286
0.233033;0.0458546;0.0159837;0.0635286
0.233532;0.0453671;0.0149488;0.0635286
0.234031;0.0449611;0.0146424;0.0635286
0.23453;0.0444479;0.0148618;0.0635286
0.235029;0.0440258;0.0148287;0.0635286
0.235528;0.0434908;0.014481;0.0635286
0.236027;0.0429875;0.0141705;0.0635286
0.236526;0.0424843;0.0130362;0.0635286
0.237025;0.0420648;0.0131314;0.0635286
0.237524;0.0415594;0.0126967;0.0635286
0.238023;0.0410244;0.0124814;0.0635286
0.238522;0.0405758;0.0123945;0.0635286
0.239021;0.0401077;0.0124442;0.0635286
0.23952;0.039631;0.0123573;0.0635286
0.240019;0.0391674;0.0120633;0.0636877
0.240518;0.0386739;0.0120716;0.0635286
0.241017;0.0381529;0.011343;0.0635286
0.241516;0.0377325;0.0113471;0.0635286
0.242015;0.0372212;0.0105275;0.0635286
0.242514;0.0366891;0.010631;0.0635286
0.243013;0.0361474;0.0103288;0.0635286
0.243512;0.0356885;0.0103619;0.0635286
0.244011;0.0351319;0.0102874;0.0635286
0.24451;0.0347264;0.00994377;0.0635286
0.245009;0.0342635;0.00976576;0.0635286
0.245508;0.0337651;0.00861906;0.0635286
0.246007;0.0332923;0.00840791;0.0635286
0.246506;0.0328058;0.00831684;0.0635286
0.247005;0.0323086;0.00826302;0.0635286
0.247504;0.0318762;0.00835824;0.0635286
