t;vds;corrente;vg
0.000499;0.0180332;0.00205493;-0.0333803
0.000998;0.0184261;0.00209473;-0.0317643
0.001497;0.0189234;0.00204092;-0.0317643
0.001996;0.0194011;0.00246732;-0.0317643
0.002495;0.0198393;0.00282334;-0.0317643
0.002994;0.0203011;0.00315866;-0.0317643
0.003493;0.0209031;0.00407355;-0.0317643
0.003992;0.0213176;0.00379618;-0.0317643
0.004491;0.0217488;0.00392038;-0.0317643
0.00499;0.0223016;0.00407355;-0.0317643
0.005489;0.0227486;0.00405699;-0.0317643
0.005988;0.0232509;0.00410253;-0.0317643
0.006487;0.0238065;0.00459519;-0.0317643
0.006986;0.0241765;0.00429711;-0.0317643
0.007485;0.0246156;0.00419775;-0.0317643
0.007984;0.0251773;0.00471522;-0.0317643
0.008483;0.0257083;0.00591575;-0.0317643
0.008982;0.0261563;0.00597371;-0.0317643
0.009481;0.0265944;0.00605237;-0.0317643
0.00998;0.0271423;0.00591575;-0.032178
0.010479;0.0276001;0.00623865;-0.0320189
0.010978;0.0280974;0.00619726;-0.0317643
0.011477;0.0286008;0.00642495;-0.0317643
0.011976;0.0290428;0.00655741;-0.0325282
0.012475;0.0295956;0.00708731;-0.0324645
0.012974;0.0300475;0.00747646;-0.0317643
0.013473;0.0306071;0.00767931;-0.0317643
0.013972;0.0311075;0.00777039;-0.0326873
0.014471;0.0316443;0.00820092;-0.0320826
0.01497;0.0322088;0.00827544;-0.0317643
0.015469;0.0326035;0.00834582;-0.0317643
0.015968;0.0330347;0.00889641;-0.0318279
0.016467;0.0335155;0.00837066;-0.0317643
0.016966;0.0339733;0.009091;-0.0317643
0.017465;0.0344323;0.00950496;-0.0317643
0.017964;0.0349858;0.00936006;-0.0317643
0.018463;0.0355374;0.0102998;-0.0317643
0.018962;0.0359836;0.0103743;-0.0317643
0.019461;0.0365314;0.0104281;-0.0317643
0.01996;0.03709;0.0103288;-0.0317643
0.020459;0.0375281;0.0104736;-0.0317643
0.020958;0.0379555;0.0107345;-0.0317643
0.021457;0.0384914;0.011492;-0.0317643
0.021956;0.0389433;0.0120592;-0.0317643
0.022455;0.0394042;0.0121544;-0.0317643
0.022954;0.0398985;0.0123945;-0.0317643
0.023453;0.0403705;0.0124069;-0.0317961
0.023952;0.0408241;0.0126553;-0.0317643
0.024451;0.0412701;0.0130113;-0.0317643
0.02495;0.0419002;0.0135661;-0.0317643
0.025449;0.0423185;0.0135164;-0.0317961
0.025948;0.0427585;0.013711;-0.0317643
0.026447;0.0433181;0.0143195;-0.0317643
0.026946;0.0438036;0.0146838;-0.0317006
0.027445;0.0442131;0.0150647;-0.0317643
0.027944;0.0447638;0.0146963;-0.0317643
0.028443;0.0452437;0.0146963;-0.0317643
0.028942;0.0457115;0.0155656;-0.0317643
0.029441;0.046016;0.0157271;-0.0317643
0.02994;0.0466311;0.0164971;-0.0317643
0.030439;0.0470655;0.0165302;-0.0320189
0.030938;0.0474865;0.0165964;-0.0317643
0.031437;0.0480521;0.0173995;-0.0320189
0.031936;0.0481744;0.016969;-0.0317643
0.032435;0.0477028;0.0170104;-0.0317643
0.032934;0.0473013;0.0174368;-0.0319871
0.033433;0.046866;0.0169566;-0.0317643
0.033932;0.0463456;0.0165178;-0.0317643
0.034431;0.0459494;0.0164225;-0.0317643
0.03493;0.0454884;0.0162404;-0.0317643
0.035429;0.044971;0.015992;-0.0317643
0.035928;0.0444252;0.0149571;-0.0317643
0.036427;0.0439962;0.01463;-0.0317643
0.036926;0.0435164;0.0148701;-0.0317643
0.037425;0.042949;0.0143651;-0.0317643
0.037924;0.0424961;0.0141084;-0.0317643
0.038423;0.0421063;0.0141125;-0.0317643
0.038922;0.0415031;0.0138559;-0.0318279
0.039421;0.0410974;0.0137896;-0.0317643
0.03992;0.0405827;0.0131811;-0.0317643
0.040419;0.0400416;0.012912;-0.0317643
0.040918;0.0396093;0.0125311;-0.0317643
0.041417;0.0391565;0.012291;-0.0317643
0.041916;0.038592;0.0122248;-0.0317643
0.042415;0.0381134;0.0120882;-0.0317643
0.042914;0.0376476;0.0120343;-0.0317643
0.043413;0.0371857;0.011194;-0.0317643
0.043912;0.0366674;0.0106061;-0.0317643
0.044411;0.0362046;0.0101259;-0.0317643
0.04491;0.0357527;0.00987344;-0.0317643
0.045409;0.0351526;0.00952979;-0.0317643
0.045908;0.0346909;0.00987757;-0.0317643
0.046407;0.0342052;0.00900819;-0.0317643
0.046906;0.0337059;0.00869358;-0.0317643
0.047405;0.0332508;0.00858594;-0.0317643
0.047904;0.0328049;0.00832098;-0.0317643
0.048403;0.0322741;0.00838722;-0.0317643
0.048902;0.031736;0.00830442;-0.0317643
0.049401;0.0312033;0.00826302;-0.0317643
0.0499;0.0307738;0.00821748;-0.0317643
0.050399;0.0302035;0.00802704;-0.0317961
0.050898;0.0297013;0.00771656;-0.0317643
0.051397;0.0292994;0.00731501;-0.0317643
0.051896;0.028813;0.00657812;-0.0317643
0.052395;0.0282799;0.00669403;-0.0317643
0.052894;0.0278636;0.00650773;-0.0317643
0.053393;0.0273526;0.00664435;-0.0317643
0.053892;0.0267839;0.00624693;-0.0317643
0.054391;0.026329;0.00616414;-0.0317643
0.05489;0.0258671;0.00600269;-0.0317643
0.055389;0.0253116;0.00616414;-0.0317643
0.055888;0.0247923;0.00549766;-0.0317643
0.056387;0.0243424;0.00495536;-0.0317643
0.056886;0.023851;0.00413565;-0.0317643
0.057385;0.0234245;0.00416463;-0.0317643
0.057884;0.0229972;0.00419361;-0.0317643
0.058383;0.0225127;0.00413151;-0.0319234
0.058882;0.0219452;0.00397834;-0.0317643
0.059381;0.0215486;0.00386242;-0.0317643
0.05988;0.0210994;0.00363889;-0.0317643
0.060379;0.0204295;0.00272399;-0.0317643
0.060878;0.0199754;0.00273642;-0.0317643
0.061377;0.0196005;0.00218167;-0.0317643
0.061876;0.0190775;0.00212371;-0.0317643
0.062375;0.0185868;0.00185462;-0.0317643
0.062874;0.0181023;0.00180909;-0.0320826
0.063373;0.017669;0.00175113;-0.0317643
0.063872;0.0170899;0.00101839;-0.0317643
0.064371;0.0167444;0.000372582;-0.0317643
0.06487;0.0163141;0.000182151;-0.0317643
0.065369;0.0158236;9.10756e-05;-0.0317643
0.065868;0.0153262;3.31184e-05;-0.0317643
0.066367;0.0148408;-0.000107635;-0.0317643
0.066866;0.0143808;-3.72582e-05;-0.0317643
0.067365;0.0139091;-0.000281506;-0.0317643
0.067864;0.0134215;-0.00114672;-0.0317643
0.068363;0.0129074;-0.00157726;-0.0317643
0.068862;0.0123922;-0.00128747;-0.0317643
0.069361;0.0119492;-0.00117984;-0.0317643
0.06986;0.0114715;-0.00181323;-0.0317643
0.070359;0.0109494;-0.00192914;-0.0317643
0.070858;0.010526;-0.00215269;-0.0317643
0.071357;0.0100928;-0.00216097;-0.0317643
0.071856;0.00957278;-0.00238867;-0.0317643
0.072355;0.00893617;-0.00345259;-0.0317643
0.072854;0.00850298;-0.00313797;-0.0317643
0.073353;0.00806673;-0.00383344;-0.0317643
0.073852;0.00754573;-0.00380446;-0.0317643
0.074351;0.00699601;-0.00416877;-0.0317643
0.07485;0.00656669;-0.00443372;-0.0317643
0.075349;0.00600222;-0.00461175;-0.0317643
0.075848;0.00557883;-0.00467384;-0.031255
0.076347;0.00511499;-0.00485186;-0.0316051
0.076846;0.00461464;-0.00497191;-0.0308413
0.077345;0.00404915;-0.00583297;-0.0317006
0.077844;0.0036258;-0.00612688;-0.0317643
0.078343;0.0030998;-0.00596958;-0.0317643
0.078842;0.00255306;-0.00604823;-0.0317643
0.079341;0.00202408;-0.00619726;-0.0317643
0.07984;0.0015573;-0.00642908;-0.0317643
0.080339;0.00115465;-0.00625935;-0.0317643
0.080838;0.000647391;-0.00665677;-0.0317643
0.081337;0.000219087;-0.00713699;-0.0317643
0.081836;-0.000323696;-0.00738537;-0.0317006
0.082335;-0.000861543;-0.0081678;-0.0317643
0.082834;-0.00129084;-0.00802291;-0.0317643
0.083333;-0.00175664;-0.00825888;-0.0317643
0.083832;-0.00229055;-0.00838306;-0.0317643
0.084331;-0.00264978;-0.00901648;-0.0317643
0.08483;-0.00311854;-0.00890467;-0.031637
0.085329;-0.00364257;-0.00933107;-0.0317643
0.085828;-0.00407283;-0.0096664;-0.0317643
0.086327;-0.00457516;-0.00971194;-0.0317643
0.086826;-0.00512093;-0.0102004;-0.0320189
0.087325;-0.00568247;-0.0102791;-0.0317643
0.087824;-0.00612457;-0.0102004;-0.0317643
0.088323;-0.00670685;-0.010337;-0.0317643
0.088822;-0.00730985;-0.0103743;-0.0317643
0.089321;-0.00771934;-0.0103329;-0.0317643
0.08982;-0.00816151;-0.0108131;-0.0317643
0.090319;-0.00869833;-0.0106351;-0.0317643
0.090818;-0.00911976;-0.0114424;-0.0317643
0.091317;-0.00954509;-0.0121337;-0.0317643
0.091816;-0.0100928;-0.0122869;-0.0317643
0.092315;-0.0106761;-0.0125725;-0.0317643
0.092814;-0.0111172;-0.0124897;-0.0317643
0.093313;-0.0116472;-0.0129161;-0.0317643
0.093812;-0.0121988;-0.0134419;-0.0317643
0.094311;-0.0125847;-0.0136737;-0.0317643
0.09481;-0.0132054;-0.0140132;-0.0316051
0.095309;-0.0137354;-0.0142243;-0.0317643
0.095808;-0.0141213;-0.0145597;-0.0317643
0.096307;-0.0145447;-0.0145886;-0.0317643
0.096806;-0.0150923;-0.014601;-0.0317643
0.097305;-0.0155137;-0.0144644;-0.0317643
0.097804;-0.015946;-0.0149074;-0.0317643
0.098303;-0.01655;-0.0155904;-0.0317643
0.098802;-0.0170159;-0.0164764;-0.0315097
0.099301;-0.0173415;-0.016526;-0.0317325
0.0998;-0.0178723;-0.016526;-0.0317643
0.100299;-0.0183738;-0.0166006;-0.0317643
0.100798;-0.0188909;-0.0168738;-0.0317643
0.101297;-0.0193083;-0.0173499;-0.0317643
0.101796;-0.0198502;-0.0181696;-0.0317643
0.102295;-0.0202331;-0.0182234;-0.0317643
0.102794;-0.020683;-0.0185835;-0.0317643
0.103293;-0.0211992;-0.0185463;-0.0317643
0.103792;-0.0217093;-0.0185918;-0.0317643
0.104291;-0.0221752;-0.0186953;-0.0317643
0.10479;-0.0225986;-0.0188526;-0.0317643
0.105289;-0.0231847;-0.0188692;-0.0317643
0.105788;-0.0236299;-0.0188857;-0.0317643
0.106287;-0.0240256;-0.0192956;-0.0317643
0.106786;-0.0245495;-0.0203429;-0.0317643
0.107285;-0.0250708;-0.0205871;-0.0317643
0.107784;-0.0254891;-0.0203388;-0.0317643
0.108283;-0.0259945;-0.0208438;-0.0317643
0.108782;-0.0265145;-0.0209349;-0.0317643
0.109281;-0.0269864;-0.0213365;-0.0317643
0.10978;-0.0274777;-0.0214524;-0.0317643
0.110279;-0.0280234;-0.0218747;-0.0317643
0.110778;-0.0284567;-0.0222142;-0.0317643
0.111277;-0.0289481;-0.0227151;-0.0317643
0.111776;-0.0294694;-0.022769;-0.0317643
0.112275;-0.0299361;-0.0228766;-0.0317643
0.112774;-0.0303356;-0.0230132;-0.0317643
0.113273;-0.0308125;-0.0227772;-0.0317643
0.113772;-0.0313709;-0.0231084;-0.0317643
0.114271;-0.0318517;-0.0238328;-0.0317643
0.11477;-0.0324002;-0.0241557;-0.0317643
0.115269;-0.0329754;-0.0244951;-0.0317643
0.115768;-0.0333912;-0.0246814;-0.0317643
0.116267;-0.0337858;-0.0247435;-0.0317643
0.116766;-0.0343553;-0.0248801;-0.0317643
0.117265;-0.0348151;-0.0248677;-0.0317643
0.117764;-0.035195;-0.0248346;-0.0317643
0.118263;-0.0357694;-0.0255426;-0.0317643
0.118762;-0.0362747;-0.0256999;-0.0317643
0.119261;-0.0366992;-0.0253686;-0.0312232
0.11976;-0.037234;-0.0264824;-0.0317643
0.120259;-0.0378114;-0.0268757;-0.0317643
0.120758;-0.0382318;-0.0268964;-0.0317643
0.121257;-0.0386986;-0.0270081;-0.0317643
0.121756;-0.0392749;-0.0278484;-0.0317643
0.122255;-0.0396775;-0.0280554;-0.0317643
0.122754;-0.0401642;-0.02837;-0.0317643
0.123253;-0.0406327;-0.0289454;-0.0317643
0.123752;-0.0411764;-0.0288502;-0.0317643
0.124251;-0.0415714;-0.0288833;-0.0317643
0.12475;-0.0421478;-0.029256;-0.0321144
0.125249;-0.0426884;-0.029492;-0.0318916
0.125748;-0.0432154;-0.0299349;-0.0317643
0.126247;-0.0437187;-0.0304234;-0.0317643
0.126746;-0.0442812;-0.0309658;-0.0317643
0.127245;-0.0447293;-0.0307464;-0.0317643
0.127744;-0.0451243;-0.0307175;-0.0317643
0.128243;-0.0457223;-0.0309534;-0.0317643
0.128742;-0.0461285;-0.0309865;-0.0317643
0.129241;-0.0465808;-0.0310858;-0.0317643
0.12974;-0.0470812;-0.0310982;-0.0319871
0.130239;-0.047676;-0.0312307;-0.0319234
0.130738;-0.0479781;-0.0315743;-0.0317643
0.131237;-0.0485517;-0.0322573;-0.0317643
0.131736;-0.0489228;-0.0321828;-0.0317643
0.132235;-0.0485318;-0.0318434;-0.0317643
0.132734;-0.0481013;-0.0313259;-0.0317643
0.133233;-0.0476635;-0.0314667;-0.0317643
0.133732;-0.0472015;-0.0311603;-0.0318279
0.134231;-0.0467169;-0.0310527;-0.0317643
0.13473;-0.0462214;-0.0306304;-0.0317643
0.135229;-0.0457727;-0.0308913;-0.0317643
0.135728;-0.0451666;-0.0304193;-0.0317643
0.136227;-0.0447232;-0.0305849;-0.0317643
0.136726;-0.0442852;-0.0301957;-0.0317643
0.137225;-0.0437671;-0.0296326;-0.0317643
0.137724;-0.0432519;-0.0292973;-0.0317643
0.138223;-0.0427547;-0.029111;-0.0317643
0.138722;-0.0422108;-0.0290117;-0.0317643
0.139221;-0.0417312;-0.0290572;-0.0317643
0.13972;-0.0412237;-0.0281507;-0.0317643
0.140219;-0.0407355;-0.027658;-0.0317643
0.140718;-0.0402055;-0.0272027;-0.0317643
0.141217;-0.039704;-0.0268798;-0.0317643
0.141716;-0.0393352;-0.0268716;-0.0317643
0.142215;-0.0387212;-0.026706;-0.0317643
0.142714;-0.0382367;-0.0268219;-0.0317643
0.143213;-0.0378441;-0.0267184;-0.0317643
0.143712;-0.0372774;-0.0266438;-0.0317325
0.144211;-0.0367889;-0.0264575;-0.0317643
0.14471;-0.0362914;-0.0257164;-0.0317325
0.145209;-0.0358602;-0.0257247;-0.031637
0.145708;-0.0353568;-0.0257868;-0.0317643
0.146207;-0.0349118;-0.0250498;-0.0317643
0.146706;-0.034456;-0.0248594;-0.0317643
0.147205;-0.0339545;-0.0248014;-0.0317643
0.147704;-0.0334632;-0.0249463;-0.0317643
0.148203;-0.0329636;-0.0246276;-0.0317643
0.148702;-0.0324901;-0.0240274;-0.0317643
0.149201;-0.0318723;-0.0232699;-0.0317643
0.1497;-0.0314883;-0.023038;-0.0317643
0.150199;-0.0308962;-0.0227565;-0.0317643
0.150698;-0.0304422;-0.0228973;-0.0317643
0.151197;-0.0299884;-0.0227234;-0.0317643
0.151696;-0.0295108;-0.0224253;-0.0317643
0.152195;-0.02903;-0.0216967;-0.0317643
0.152694;-0.0286383;-0.0215476;-0.0317643
0.153193;-0.0281546;-0.0218913;-0.0317643
0.153692;-0.027609;-0.0213696;-0.0317643
0.154191;-0.0270949;-0.021204;-0.0317643
0.15469;-0.0265579;-0.02091;-0.0317643
0.155189;-0.0260714;-0.0206658;-0.0317643
0.155688;-0.0255503;-0.0205665;-0.0317643
0.156187;-0.0250786;-0.0205168;-0.0317643
0.156686;-0.0246245;-0.0202146;-0.0317643
0.157185;-0.0241174;-0.0196144;-0.0317643
0.157684;-0.0235963;-0.0190017;-0.0317643
0.158183;-0.0231422;-0.0186539;-0.0317643
0.158682;-0.0227546;-0.0185877;-0.0317643
0.159181;-0.0221959;-0.0183352;-0.0317643
0.15968;-0.0217597;-0.0181447;-0.0317643
0.160179;-0.0212979;-0.0180909;-0.0317643
0.160678;-0.0207964;-0.0181323;-0.0317643
0.161177;-0.0203358;-0.0178508;-0.0317643
0.161676;-0.0198136;-0.017826;-0.0317643
0.162175;-0.0193113;-0.0177059;-0.0317643
0.162674;-0.0188643;-0.0177225;-0.0317643
0.163173;-0.0184121;-0.0170394;-0.0317643
0.163672;-0.0179138;-0.0166544;-0.0317643
0.164171;-0.0174115;-0.016526;-0.0317643
0.16467;-0.0170356;-0.0164474;-0.0317643
0.165169;-0.0165599;-0.0161824;-0.0317643
0.165668;-0.0161128;-0.0160458;-0.0317643
0.166167;-0.015639;-0.0158678;-0.0317643
0.166666;-0.0151457;-0.0153462;-0.0317643
0.167165;-0.0146513;-0.0150399;-0.0317643
0.167664;-0.0141746;-0.0144106;-0.0317643
0.168163;-0.013691;-0.0143361;-0.0317643
0.168662;-0.0131531;-0.0142616;-0.0317643
0.169161;-0.0126498;-0.0140629;-0.0317643
0.16966;-0.0122383;-0.014096;-0.0317643
0.170159;-0.0116531;-0.013446;-0.031637
0.170658;-0.0111103;-0.0127464;-0.0317643
0.171157;-0.0106968;-0.0126056;-0.0317643
0.171656;-0.0102438;-0.0123821;-0.0317643
0.172155;-0.0097514;-0.01232;-0.0317643
0.172654;-0.00928457;-0.01232;-0.0317643
0.173153;-0.00876644;-0.0118232;-0.0317643
0.173652;-0.00825624;-0.012349;-0.0317643
0.174151;-0.00772925;-0.0116286;-0.0317643
0.17465;-0.00729208;-0.0110739;-0.0317643
0.175149;-0.00677591;-0.0107924;-0.0317643
0.175648;-0.00619664;-0.0106641;-0.0318279
0.176147;-0.00579792;-0.0103577;-0.0320826
0.176646;-0.00521663;-0.0102874;-0.0317643
0.177145;-0.0046561;-0.00958364;-0.0317643
0.177644;-0.00423074;-0.00927318;-0.0317643
0.178143;-0.0037304;-0.00912;-0.0317643
0.178642;-0.00323994;-0.00851556;-0.0317643
0.179141;-0.00278003;-0.00827958;-0.0317643
0.17964;-0.00237147;-0.00828372;-0.0317643
0.180139;-0.00186816;-0.00819678;-0.0317643
0.180638;-0.00131551;-0.00804775;-0.0317643
0.181137;-0.000896083;-0.00741849;-0.0317643
0.181636;-0.000427317;-0.00706247;-0.0317643
0.182135;0.000146058;-0.0067437;-0.0317643
0.182634;0.000611863;-0.00669402;-0.0317643
0.183133;0.00110333;-0.0064415;-0.0317643
0.183632;0.00152276;-0.00619726;-0.0317643
0.184131;0.0020004;-0.00619726;-0.0317643
0.18463;0.00239911;-0.00624279;-0.0321144
0.185129;0.00300407;-0.00575845;-0.0317643
0.185628;0.00350046;-0.00540244;-0.0317643
0.186127;0.00389619;-0.00525755;-0.0317643
0.186626;0.00447746;-0.00478146;-0.0317643
0.187125;0.00497981;-0.00414807;-0.0317643
0.187624;0.00549989;-0.00429711;-0.0324327
0.188123;0.00592523;-0.00407769;-0.0317643
0.188622;0.00651934;-0.00375479;-0.0317643
0.189121;0.00700885;-0.00364302;-0.0317643
0.18962;0.00747069;-0.00350641;-0.0317643
0.190119;0.00796411;-0.00341948;-0.0317643
0.190618;0.00850395;-0.00238039;-0.031637
0.191117;0.00895296;-0.00226861;-0.031637
0.191616;0.00942762;-0.00212372;-0.0315415
0.192115;0.00993887;-0.00229345;-0.0317643
0.192614;0.0103879;-0.00209887;-0.0317643
0.193113;0.0108586;-0.00206576;-0.0317643
0.193612;0.0114281;-0.00180909;-0.0317643
0.194111;0.0119274;-0.00206162;-0.0317643
0.19461;0.0123162;-0.00197054;-0.0317643
0.195109;0.0128442;-0.00122124;-0.0317643
0.195608;0.013385;-0.000902475;-0.0317643
0.196107;0.0138292;-0.00019871;-0.0322735
0.196606;0.0143266;-4.1398e-05;-0.0317643
0.197105;0.0147816;8.2796e-05;-0.0317643
0.197604;0.0153045;3.72582e-05;-0.0317643
0.198103;0.0157012;8.69358e-05;-0.0317643
0.198602;0.0162312;0.00021113;-0.0317643
0.199101;0.0166793;0.00041812;-0.0317643
0.1996;0.0170454;0.00062925;-0.0317643
0.200099;0.0176434;0.00120054;-0.0317643
0.200598;0.0180746;0.00149032;-0.0317643
0.201097;0.0185287;0.00204092;-0.0317643
0.201596;0.0190182;0.00233485;-0.0317643
0.202095;0.0195481;0.00221893;-0.0317643
0.202594;0.0199301;0.0025998;-0.0317643
0.203093;0.0204737;0.00303447;-0.0317643
0.203592;0.0209959;0.00360162;-0.0317643
0.204091;0.021435;0.00393694;-0.0317643
0.20459;0.0218988;0.00377135;-0.0317643
0.205089;0.0223973;0.00413151;-0.0317643
0.205588;0.0228423;0.00424329;-0.0317643
0.206087;0.0232983;0.00419361;-0.0317643
0.206586;0.0238657;0.00471108;-0.0317643
0.207085;0.024287;0.00464899;-0.0317643
0.207584;0.0247144;0.00537345;-0.0317643
0.208083;0.0252888;0.00576259;-0.0317643
0.208582;0.0257576;0.00573364;-0.0317643
0.209081;0.0262638;0.00616828;-0.0317643
0.20958;0.0267435;0.00619726;-0.0317643
0.210079;0.0272942;0.00662366;-0.0317643
0.210578;0.0277402;0.00681407;-0.0324645
0.211077;0.0281211;0.00727774;-0.0318598
0.211576;0.0285958;0.0073357;-0.0317643
0.212075;0.0292265;0.00804361;-0.0318279
0.212574;0.029643;0.00816366;-0.0317643
0.213073;0.0301186;0.00826302;-0.0320189
0.213572;0.0307246;0.00820506;-0.0317643
0.214071;0.0312081;0.00818022;-0.0317643
0.21457;0.0316582;0.00825888;-0.0322417
0.215069;0.0322581;0.00823818;-0.0321144
0.215568;0.0327544;0.00841206;-0.0317643
0.216067;0.0331048;0.0089254;-0.0317643
0.216566;0.0336428;0.00903717;-0.0317643
0.217065;0.0341164;0.00923586;-0.0317643
0.217564;0.0345221;0.00991478;-0.0317643
0.218063;0.0350717;0.0103288;-0.0317643
0.218562;0.0355996;0.0103536;-0.0317643
0.219061;0.036104;0.0105772;-0.0317643
0.21956;0.0365748;0.0110201;-0.0317643
0.220059;0.0371404;0.0108421;-0.0318279
0.220558;0.0376287;0.0115417;-0.0317643
0.221057;0.0380621;0.0119226;-0.0317643
0.221556;0.0385782;0.0121834;-0.0317643
0.222055;0.0390714;0.0123945;-0.0317643
0.222554;0.039495;0.0124939;-0.0317643
0.223053;0.0399765;0.0128789;-0.0317643
0.223552;0.0404946;0.0129865;-0.0317643
0.224051;0.0409633;0.0140173;-0.0317643
0.22455;0.0414044;0.014125;-0.0317643
0.225049;0.041916;0.014038;-0.0317643
0.225548;0.0424387;0.0139428;-0.0317643
0.226047;0.0428859;0.0144437;-0.0317643
0.226546;0.0433951;0.0145472;-0.0317643
0.227045;0.0438657;0.0145679;-0.0317643
0.227544;0.0443503;0.0151641;-0.0317643
0.228043;0.0448092;0.0152054;-0.0317643
0.228542;0.0453691;0.0156319;-0.0317643
0.229041;0.0458013;0.015872;-0.0317643
0.22954;0.0462331;0.016526;-0.0317643
0.230039;0.0467338;0.0166627;-0.0317643
0.230538;0.0472489;0.0165757;-0.0317643
0.231037;0.0476651;0.0172754;-0.0317643
0.231536;0.0481133;0.016998;-0.0317643
0.232035;0.0481289;0.0173582;-0.0317643
0.232534;0.0476477;0.0168407;-0.0317643
0.233033;0.0472065;0.0165385;-0.0317643
0.233532;0.0467406;0.0165467;-0.0317643
0.234031;0.0461919;0.0164805;-0.0317643
0.23453;0.045742;0.0162611;-0.0317643
0.235029;0.0453078;0.015843;-0.0317643
0.235528;0.0447904;0.0152634;-0.0317643
0.236027;0.0442793;0.0150109;-0.0317643
0.236526;0.0438392;0.0148329;-0.0317643
0.237025;0.0433842;0.0144976;-0.0317643
0.237524;0.0428415;0.0145058;-0.0317643
0.238023;0.0423629;0.0145265;-0.0317643
0.238522;0.0419455;0.0137731;-0.0317643
0.239021;0.0414517;0.0138476;-0.0317643
0.23952;0.0409287;0.0130569;-0.0317643
0.240019;0.0405255;0.0134874;-0.0317325
0.240518;0.0399893;0.0131562;-0.0317643
0.241017;0.0395107;0.0123945;-0.0317643
0.241516;0.0390351;0.0121999;-0.0317643
