t;vds;corrente;vg
0;-0.0021628;0.0191021;-0.152336
2e-05;-0.00200761;0.0199154;-0.292669
4e-05;-0.00195818;0.018835;-0.295535
6e-05;-0.00198388;0.0168928;-0.295535
8e-05;-0.00206099;0.0181229;-0.295535
0.0001;-0.00203133;0.019709;-0.295535
0.00012;-0.00211338;0.0180056;-0.295535
0.00014;-0.00211041;0.018216;-0.295535
0.00016;-0.000596055;0.0252725;-0.295535
0.00018;-0.000575297;0.0230471;-0.295535
0.0002;-0.000403301;0.0250985;-0.295535
0.00022;0.000981563;0.0356915;-0.295535
0.00024;0.00279543;0.0483763;-0.295535
0.00026;0.00471308;0.0557768;-0.295535
0.00028;0.00650619;0.0636427;-0.295535
0.0003;0.00824394;0.0796008;-0.295535
0.00032;0.0103276;0.0934268;-0.295535
0.00034;0.012269;0.102466;-0.295535
0.00036;0.0139751;0.113407;-0.295535
0.00038;0.0158809;0.121774;-0.295535
0.0004;0.0176513;0.13613;-0.295535
0.00042;0.0195739;0.147719;-0.295535
0.00044;0.0214312;0.161269;-0.295535
0.00046;0.0233281;0.168136;-0.295535
0.00048;0.0251489;0.179898;-0.295535
0.0005;0.0270537;0.183439;-0.295743
0.00052;0.0289684;0.203973;-0.296207
0.00054;0.030552;0.21287;-0.296175
0.00056;0.0325368;0.215671;-0.295615
0.00058;0.0343694;0.224119;-0.295535
0.0006;0.0364265;0.236193;-0.295535
0.00062;0.0381702;0.242828;-0.295535
0.00064;0.0400758;0.247142;-0.295535
0.00066;0.0419334;0.248149;-0.295535
0.00068;0.0438083;0.252054;-0.295535
0.0007;0.0454246;0.251039;-0.295535
0.00072;0.0445745;0.253017;-0.295535
0.00074;0.0427411;0.250888;-0.295535
0.00076;0.040753;0.248469;-0.295535
0.00078;0.0390432;0.243962;-0.295535
0.0008;0.0371263;0.238442;-0.295535
0.00082;0.0352176;0.230601;-0.295535
0.00084;0.033298;0.224354;-0.295535
0.00086;0.0314416;0.217159;-0.295535
0.00088;0.0296159;0.206421;-0.295535
0.0009;0.0277151;0.195707;-0.295535
0.00092;0.0258597;0.185939;-0.295535
0.00094;0.0240893;0.174468;-0.295535
0.00096;0.0222349;0.16288;-0.295535
0.00098;0.0203993;0.151267;-0.295535
0.001;0.0183551;0.141095;-0.295535
0.00102;0.016557;0.129151;-0.295535
0.00104;0.014845;0.117425;-0.295535
0.00106;0.0127949;0.107208;-0.295535
0.00108;0.0110838;0.0949319;-0.295535
0.0011;0.00913949;0.0861314;-0.295535
0.00112;0.00706568;0.0738431;-0.295535
0.00114;0.00539909;0.0627121;-0.295535
0.00116;0.00348045;0.0501647;-0.295535
0.00118;0.00164879;0.0379169;-0.295535
0.0012;-0.000178915;0.0291245;-0.295535
0.00122;-0.00197598;0.0176819;-0.295535
0.00124;-0.00397667;0.00631611;-0.295535
0.00126;-0.00586269;-0.00424042;-0.295535
0.00128;-0.0077072;-0.0165651;-0.295535
0.0013;-0.00947063;-0.0293754;-0.295535
0.00132;-0.0113527;-0.0382689;-0.295535
0.00134;-0.0134166;-0.0495214;-0.295535
0.00136;-0.0151643;-0.0567884;-0.295535
0.00138;-0.0171056;-0.0715772;-0.295535
0.0014;-0.0189373;-0.0785043;-0.295535
0.00142;-0.0206375;-0.094062;-0.295535
0.00144;-0.0227469;-0.0976509;-0.295535
0.00146;-0.0245302;-0.121621;-0.295535
0.00148;-0.0263519;-0.127815;-0.295535
0.0015;-0.0282586;-0.133387;-0.295535
0.00152;-0.0303286;-0.145631;-0.295535
0.00154;-0.0320297;-0.164336;-0.295535
0.00156;-0.033725;-0.164506;-0.295535
0.00158;-0.0358521;-0.185644;-0.295695
0.0016;-0.0376917;-0.183989;-0.295535
0.00162;-0.0392862;-0.206441;-0.295535
0.00164;-0.0416537;-0.211932;-0.295999
0.00166;-0.0428801;-0.219466;-0.296239
0.00168;-0.0448977;-0.224617;-0.295759
0.0017;-0.0471594;-0.230585;-0.295983
0.00172;-0.0459714;-0.230953;-0.295551
0.00174;-0.0441713;-0.221222;-0.295711
0.00176;-0.0427351;-0.213866;-0.296127
0.00178;-0.0403002;-0.205826;-0.295535
0.0018;-0.0389075;-0.197082;-0.295567
0.00182;-0.0369267;-0.186445;-0.295535
0.00184;-0.0347243;-0.180643;-0.295535
0.00186;-0.0333513;-0.165393;-0.295535
0.00188;-0.0311688;-0.152485;-0.295535
0.0019;-0.0293549;-0.145153;-0.295535
0.00192;-0.0277506;-0.131404;-0.295535
0.00194;-0.0255562;-0.118254;-0.295535
0.00196;-0.0237591;-0.111829;-0.295535
0.00198;-0.0220016;-0.0974769;-0.295535
0.002;-0.0199515;-0.0888059;-0.295535
0.00202;-0.0182197;-0.0812436;-0.295535
0.00204;-0.0163791;-0.0693599;-0.295535
0.00206;-0.0142875;-0.0539843;-0.295535
0.00208;-0.012697;-0.0487567;-0.295535
0.0021;-0.0106558;-0.0344857;-0.295535
0.00212;-0.00875695;-0.0234477;-0.295535
0.00214;-0.00700933;-0.0102531;-0.295535
0.00216;-0.00509167;0.000922534;-0.295535
0.00218;-0.00308802;0.013838;-0.295535
0.0022;-0.0012702;0.0228569;-0.295535
0.00222;0.000526861;0.0350603;-0.295535
0.00224;0.00234666;0.0443018;-0.295535
0.00226;0.00428013;0.0544861;-0.295535
0.00228;0.00618593;0.0666935;-0.295535
0.0023;0.00794246;0.0799246;-0.295535
0.00232;0.00981363;0.0900158;-0.295535
0.00234;0.0117678;0.0977845;-0.295535
0.00236;0.0135965;0.112404;-0.295535
0.00238;0.0154638;0.122551;-0.295535
0.0024;0.0174101;0.135446;-0.295535
0.00242;0.0192042;0.147662;-0.295535
0.00244;0.021193;0.160096;-0.295535
0.00246;0.0229703;0.161577;-0.295535
0.00248;0.0246626;0.174691;-0.296319
0.0025;0.0265466;0.18674;-0.296191
0.00252;0.0285414;0.198082;-0.295775
0.00254;0.0302258;0.208703;-0.295535
0.00256;0.032267;0.221012;-0.295535
0.00258;0.0340434;0.227275;-0.295535
0.0026;0.0360548;0.235177;-0.295535
0.00262;0.0378361;0.241336;-0.295535
0.00264;0.039722;0.247663;-0.295535
0.00266;0.0415489;0.248133;-0.295535
0.00268;0.0433231;0.252714;-0.295535
0.0027;0.0453032;0.253293;-0.295535
0.00272;0.0448621;0.254895;-0.295535
0.00274;0.043016;0.251395;-0.295535
0.00276;0.0410773;0.247809;-0.295535
0.00278;0.0393545;0.247162;-0.295535
0.0028;0.0374397;0.237127;-0.295535
0.00282;0.0355409;0.23489;-0.295535
0.00284;0.033551;0.224718;-0.295535
0.00286;0.0317036;0.21879;-0.295535
0.00288;0.0298947;0.209775;-0.295535
0.0029;0.0280165;0.199522;-0.295535
0.00292;0.0262372;0.187497;-0.295535
0.00294;0.0243908;0.177511;-0.295535
0.00296;0.0225739;0.16797;-0.295535
0.00298;0.0206661;0.156135;-0.295535
0.003;0.018794;0.144352;-0.295535
0.00302;0.0168545;0.133492;-0.295535
0.00304;0.0151732;0.119691;-0.295535
0.00306;0.0131645;0.11282;-0.295535
0.00308;0.0113824;0.0978815;-0.295535
0.0031;0.00937377;0.0842094;-0.295535
0.00312;0.00755596;0.0742396;-0.295535
0.00314;0.00573715;0.0639785;-0.295535
0.00316;0.00373152;0.0497359;-0.295535
0.00318;0.00206692;0.0405995;-0.295535
0.0032;0.000159145;0.0329401;-0.295535
0.00322;-0.00166263;0.0238766;-0.295535
0.00324;-0.00351702;0.00687449;-0.295535
0.00326;-0.00542578;-0.00135952;-0.295535
0.00328;-0.00735332;-0.0102935;-0.295535
0.0033;-0.00916322;-0.0268505;-0.295535
0.00332;-0.0110265;-0.0349712;-0.295535
0.00334;-0.0128957;-0.0492786;-0.295535
0.00336;-0.0149349;-0.060608;-0.295535
0.00338;-0.016813;-0.0677576;-0.295535
0.0034;-0.0186348;-0.0807419;-0.295535
0.00342;-0.0205011;-0.0945961;-0.295535
0.00344;-0.0222675;-0.104258;-0.295535
0.00346;-0.0240961;-0.112881;-0.295535
0.00348;-0.0259536;-0.122745;-0.295535
0.0035;-0.0277565;-0.135726;-0.295535
0.00352;-0.0298669;-0.149458;-0.295535
0.00354;-0.0315384;-0.155042;-0.295535
0.00356;-0.0333237;-0.168476;-0.295535
0.00358;-0.0355002;-0.17707;-0.295535
0.0036;-0.0372006;-0.186967;-0.295535
0.00362;-0.0391666;-0.199364;-0.295535
0.00364;-0.0410279;-0.206967;-0.295535
0.00366;-0.0427409;-0.219721;-0.295535
0.00368;-0.0446664;-0.222322;-0.295535
0.0037;-0.0466316;-0.234065;-0.295535
0.00372;-0.0463194;-0.233466;-0.295535
0.00374;-0.0447386;-0.226951;-0.295535
0.00376;-0.0428399;-0.222286;-0.295535
0.00378;-0.0408805;-0.207963;-0.295535
0.0038;-0.0391083;-0.200133;-0.295535
0.00382;-0.037072;-0.18916;-0.295535
0.00384;-0.0351999;-0.182136;-0.295535
0.00386;-0.0335668;-0.169876;-0.295535
0.00388;-0.0316324;-0.15592;-0.295535
0.0039;-0.0296791;-0.146792;-0.295535
0.00392;-0.0279385;-0.138287;-0.295535
0.00394;-0.025923;-0.12574;-0.295535
0.00396;-0.0241861;-0.116102;-0.295535
0.00398;-0.0223545;-0.103291;-0.295535
0.004;-0.0203874;-0.0900603;-0.295535
0.00402;-0.0185073;-0.0846545;-0.295535
0.00404;-0.0166974;-0.0700519;-0.295535
0.00406;-0.0147105;-0.0647675;-0.295535
0.00408;-0.0130173;-0.0442573;-0.295535
0.0041;-0.0109375;-0.0366585;-0.295535
0.00412;-0.00918002;-0.0274615;-0.295535
0.00414;-0.00733553;-0.00949237;-0.295535
0.00416;-0.00544951;-0.00192599;-0.295535
0.00418;-0.00350219;0.00713749;-0.295535
0.0042;-0.00171007;0.019798;-0.295535
0.00422;0.000219443;0.0336077;-0.295535
0.00424;0.00196609;0.0459891;-0.295535
0.00426;0.00392428;0.055271;-0.295535
0.00428;0.00571837;0.0681663;-0.295535
0.0043;0.00766074;0.0737055;-0.295535
0.00432;0.00941626;0.0878833;-0.295535
0.00434;0.0113349;0.101495;-0.295535
0.00436;0.0132872;0.113727;-0.295535
0.00438;0.0150644;0.121641;-0.295535
0.0044;0.0170493;0.132962;-0.295535
0.00442;0.0187732;0.135511;-0.295535
0.00444;0.0207996;0.16025;-0.296735
0.00446;0.0227123;0.16795;-0.296127
0.00448;0.0244352;0.182933;-0.295743
0.0045;0.0261582;0.187371;-0.295535
0.00452;0.0281312;0.199008;-0.295535
0.00454;0.0300874;0.20808;-0.295535
0.00456;0.0318617;0.218677;-0.295535
0.00458;0.0335638;0.225187;-0.295535
0.0046;0.0355961;0.231483;-0.295535
0.00462;0.0375317;0.240373;-0.295535
0.00464;0.0392229;0.244896;-0.295535
0.00466;0.0411525;0.250674;-0.295535
0.00468;0.04317;0.250791;-0.295535
0.0047;0.0449077;0.252572;-0.295535
0.00472;0.0451379;0.25464;-0.295535
0.00474;0.0433796;0.253313;-0.295535
0.00476;0.0414924;0.247943;-0.295535
0.00478;0.0395967;0.246592;-0.295535
0.0048;0.0378755;0.239665;-0.295535
0.00482;0.0359748;0.233923;-0.295535
0.00484;0.0340284;0.2287;-0.295535
0.00486;0.0322769;0.221036;-0.295535
0.00488;0.0303572;0.208432;-0.295535
0.0049;0.0284801;0.202702;-0.295535
0.00492;0.0265505;0.188909;-0.295535
0.00494;0.0246873;0.178183;-0.295535
0.00496;0.0228912;0.171555;-0.295535
0.00498;0.0211752;0.155641;-0.295535
0.005;0.0192447;0.146614;-0.295535
0.00502;0.0173577;0.136021;-0.295535
0.00504;0.0154756;0.125461;-0.295535
0.00506;0.0135956;0.111865;-0.295535
0.00508;0.0117342;0.0985613;-0.295535
0.0051;0.00980474;0.0913145;-0.295535
0.00512;0.00804427;0.0794349;-0.295535
0.00514;0.00608312;0.066568;-0.295535
0.00516;0.00429891;0.0530214;-0.295535
0.00518;0.00243958;0.0434562;-0.295535
0.0052;0.000575297;0.0306863;-0.295535
0.00522;-0.00122967;0.0225656;-0.295535
0.00524;-0.00308604;0.0142305;-0.295535
0.00526;-0.00495625;0.00248841;-0.295535
0.00528;-0.0068235;-0.00887735;-0.295535
0.0053;-0.00884098;-0.0238685;-0.295535
0.00532;-0.0105461;-0.0361285;-0.295535
0.00534;-0.0125319;-0.0477937;-0.295535
0.00536;-0.0143903;-0.0576179;-0.295535
0.00538;-0.0163781;-0.0654756;-0.295535
0.0054;-0.0181485;-0.0778893;-0.295535
0.00542;-0.0200354;-0.0899187;-0.295535
0.00544;-0.021956;-0.0981569;-0.295535
0.00546;-0.0237225;-0.112056;-0.295535
0.00548;-0.025569;-0.121289;-0.295535
0.0055;-0.0275696;-0.133112;-0.295535
0.00552;-0.0295378;-0.143685;-0.295535
0.00554;-0.0311589;-0.157802;-0.295535
0.00556;-0.0331408;-0.166052;-0.295535
0.00558;-0.0349725;-0.173364;-0.295535
0.0056;-0.0367794;-0.189233;-0.295535
0.00562;-0.0388612;-0.200542;-0.295631
0.00564;-0.0406493;-0.208938;-0.295535
0.00566;-0.0423652;-0.210949;-0.295535
0.00568;-0.0442759;-0.224742;-0.295535
0.0057;-0.0461671;-0.231179;-0.295583
0.00572;-0.0468137;-0.235412;-0.295535
0.00574;-0.045213;-0.224645;-0.295535
0.00576;-0.0430099;-0.213777;-0.295535
0.00578;-0.0412364;-0.209545;-0.295535
0.0058;-0.0395146;-0.202666;-0.295535
0.00582;-0.0374644;-0.193489;-0.295535
0.00584;-0.035786;-0.182034;-0.295535
0.00586;-0.0338999;-0.172696;-0.295535
0.00588;-0.0318973;-0.158073;-0.295535
0.0059;-0.0302416;-0.148055;-0.295679
0.00592;-0.0283111;-0.139145;-0.295535
0.00594;-0.0263134;-0.129438;-0.295535
0.00596;-0.024624;-0.113593;-0.295551
0.00598;-0.02256;-0.10699;-0.295535
0.006;-0.0208213;-0.0958908;-0.295535
0.00602;-0.0189165;-0.0833233;-0.295535
0.00604;-0.0169326;-0.0742518;-0.295535
0.00606;-0.0152176;-0.062012;-0.295535
0.00608;-0.0133257;-0.0490238;-0.295535
0.0061;-0.011328;-0.0392521;-0.295535
0.00612;-0.00957245;-0.0274575;-0.295535
0.00614;-0.00771709;-0.016727;-0.295535
0.00616;-0.00558196;-0.00453984;-0.295535
0.00618;-0.00390846;0.00852938;-0.295535
0.0062;-0.00201453;0.0181391;-0.295535
0.00622;-8.50093e-05;0.0281979;-0.295535
0.00624;0.00172095;0.0394787;-0.295535
0.00626;0.00348144;0.0523901;-0.295535
0.00628;0.00543665;0.0643305;-0.295535
0.0063;0.00730785;0.0725685;-0.295535
0.00632;0.00910984;0.0850389;-0.295535
0.00634;0.0110107;0.0965019;-0.295535
0.00636;0.0128067;0.109009;-0.295535
0.00638;0.0147165;0.120443;-0.295535
0.0064;0.0167626;0.135455;-0.296415
0.00642;0.0185053;0.137886;-0.296655
0.00644;0.0202322;0.154634;-0.296223
0.00646;0.0221835;0.163936;-0.295535
0.00648;0.024023;0.171442;-0.295535
0.0065;0.0258063;0.188209;-0.295535
0.00652;0.0276606;0.196002;-0.295535
0.00654;0.0295051;0.20806;-0.295535
0.00656;0.031316;0.217386;-0.295535
0.00658;0.0332417;0.225373;-0.295535
0.0066;0.035187;0.231568;-0.295535
0.00662;0.0371541;0.238718;-0.295535
0.00664;0.0389195;0.244006;-0.295535
0.00666;0.0407788;0.247077;-0.295535
0.00668;0.0426866;0.249012;-0.295535
0.0067;0.0444044;0.251164;-0.295535
0.00672;0.0454334;0.253195;-0.295535
0.00674;0.043936;0.251556;-0.295535
0.00676;0.0419539;0.251152;-0.295535
0.00678;0.0399118;0.245576;-0.295535
0.0068;0.0379981;0.237856;-0.295535
0.00682;0.0366835;0.233397;-0.295583
0.00684;0.0340818;0.234186;-0.295535
0.00686;0.0322639;0.218976;-0.295535
0.00688;0.0311242;0.217868;-0.295535
0.0069;0.0285018;0.202706;-0.295935
0.00692;0.0269875;0.190515;-0.295695
0.00694;0.0255719;0.186336;-0.295535
0.00696;0.0229189;0.168334;-0.295727
0.00698;0.0214895;0.162738;-0.296047
0.007;0.0198714;0.147274;-0.295535
0.00702;0.0173656;0.134051;-0.295855
0.00704;0.0161636;0.129972;-0.295839
0.00706;0.0140532;0.114103;-0.295535
0.00708;0.0118667;0.104699;-0.295663
0.0071;0.0103286;0.0939405;-0.295535
0.00712;0.00821923;0.08005;-0.295535
0.00714;0.0062996;0.0681744;-0.295551
0.00716;0.00492363;0.0574844;-0.295535
0.00718;0.00259477;0.0427926;-0.295535
0.0072;0.00101319;0.036088;-0.295647
0.00722;-0.000610883;0.0244066;-0.295535
0.00724;-0.0029694;0.0129397;-0.295535
0.00726;-0.00454504;0.00200287;-0.295535
0.00728;-0.00657341;-0.00929006;-0.295535
0.0073;-0.00860671;-0.0207489;-0.295535
0.00732;-0.0101665;-0.0324626;-0.295535
0.00734;-0.0122769;-0.0464261;-0.295535
0.00736;-0.0141649;-0.0542231;-0.295535
0.00738;-0.0158888;-0.0671587;-0.295535
0.0074;-0.0178025;-0.0776384;-0.295535
0.00742;-0.0198516;-0.0882516;-0.295535
0.00744;-0.021453;-0.100625;-0.295583
0.00746;-0.0235327;-0.11384;-0.295551
0.00748;-0.0252527;-0.122932;-0.295535
0.0075;-0.027113;-0.130316;-0.295535
0.00752;-0.0291819;-0.140881;-0.295535
0.00754;-0.0308654;-0.152258;-0.295535
0.00756;-0.0326733;-0.167108;-0.295535
0.00758;-0.034592;-0.175439;-0.295535
0.0076;-0.0365085;-0.182973;-0.295535
0.00762;-0.0383224;-0.194881;-0.295535
0.00764;-0.0402715;-0.205515;-0.295535
0.00766;-0.0420224;-0.215873;-0.295535
0.00768;-0.0439458;-0.22312;-0.295535
0.0077;-0.0458064;-0.228076;-0.295535
0.00772;-0.0469727;-0.237342;-0.295535
0.00774;-0.0454137;-0.226968;-0.295535
0.00776;-0.043439;-0.221813;-0.295535
0.00778;-0.0418334;-0.21105;-0.295615
0.0078;-0.0398171;-0.203127;-0.295535
0.00782;-0.0379862;-0.194998;-0.295535
0.00784;-0.0360588;-0.180586;-0.295535
0.00786;-0.0342498;-0.174173;-0.295535
0.00788;-0.0324231;-0.160958;-0.295599
0.0079;-0.0305015;-0.151182;-0.295535
0.00792;-0.0286402;-0.142944;-0.295535
0.00794;-0.0268095;-0.130292;-0.295535
0.00796;-0.0248246;-0.119517;-0.295535
0.00798;-0.0230118;-0.113217;-0.295535
0.008;-0.021269;-0.0961134;-0.295551
0.00802;-0.0192575;-0.0878551;-0.295535
0.00804;-0.0173665;-0.0717633;-0.295535
0.00806;-0.0155853;-0.0601184;-0.295535
0.00808;-0.0136361;-0.0527826;-0.295535
0.0081;-0.0117263;-0.0424163;-0.295535
0.00812;-0.00992828;-0.0300875;-0.295535
0.00814;-0.00806503;-0.0181148;-0.295535
0.00816;-0.00615034;-0.0102166;-0.295535
0.00818;-0.00437601;0.00272714;-0.295535
0.0082;-0.00234962;0.014894;-0.295535
0.00822;-0.000584193;0.0262558;-0.295535
0.00824;0.00130875;0.034688;-0.295535
0.00826;0.00325211;0.0470816;-0.295535
0.00828;0.00512825;0.0623965;-0.295535
0.0083;0.00703404;0.0680247;-0.295535
0.00832;0.00867294;0.0804708;-0.295535
0.00834;0.010469;0.0962388;-0.295535
0.00836;0.0123441;0.0994474;-0.296447
0.00838;0.0142994;0.118303;-0.297695
0.0084;0.0162368;0.130126;-0.296543
0.00842;0.0181821;0.138866;-0.295535
0.00844;0.0200948;0.151749;-0.295535
0.00846;0.0218997;0.16303;-0.295535
0.00848;0.0237473;0.173485;-0.295535
0.0085;0.0255818;0.18165;-0.295535
0.00852;0.0274362;0.192461;-0.295535
0.00854;0.0291839;0.206057;-0.295535
0.00856;0.0311233;0.214995;-0.295535
0.00858;0.0328967;0.222674;-0.295535
0.0086;0.0348559;0.22808;-0.295535
0.00862;0.0367596;0.239292;-0.295535
0.00864;0.0386714;0.243205;-0.295535
0.00866;0.0404722;0.24698;-0.295535
0.00868;0.0424177;0.252993;-0.295535
0.0087;0.0442392;0.252103;-0.295535
0.00872;0.0455254;0.254405;-0.295535
0.00874;0.0440022;0.252871;-0.295535
0.00876;0.0423158;0.250925;-0.295535
0.00878;0.0402746;0.245034;-0.295535
0.0088;0.0385071;0.241198;-0.295535
0.00882;0.0367536;0.239466;-0.295535
0.00884;0.0346106;0.228226;-0.295535
0.00886;0.0329509;0.222201;-0.295535
0.00888;0.0309472;0.215238;-0.295535
0.0089;0.029168;0.205879;-0.295535
0.00892;0.0273116;0.196479;-0.295535
0.00894;0.0256125;0.18337;-0.295535
0.00896;0.0236583;0.171842;-0.295535
0.00898;0.0218168;0.161775;-0.295535
0.009;0.0199406;0.151554;-0.295535
0.00902;0.018105;0.139258;-0.295535
0.00904;0.0161696;0.127504;-0.295535
0.00906;0.0142984;0.120512;-0.295535
0.00908;0.0125043;0.10247;-0.295535
0.0091;0.0106064;0.0913226;-0.295535
0.00912;0.00859583;0.0827609;-0.295535
0.00914;0.00681065;0.0750529;-0.295535
0.00916;0.00508377;0.0613201;-0.295535
0.00918;0.00319972;0.0481255;-0.295535
0.0092;0.00130084;0.0385805;-0.295535
0.00922;-0.000485345;0.0295574;-0.295535
0.00924;-0.002317;0.0196402;-0.295535
0.00926;-0.00426629;0.00240344;-0.295535
0.00928;-0.00614045;-0.00934266;-0.295535
0.0093;-0.00808678;-0.0236986;-0.295535
0.00932;-0.00986207;-0.0304719;-0.295535
0.00934;-0.0117342;-0.0410446;-0.295535
0.00936;-0.0136746;-0.0512006;-0.295535
0.00938;-0.0155063;-0.0590745;-0.295535
0.0094;-0.0174852;-0.069538;-0.295535
0.00942;-0.0193692;-0.0901695;-0.295535
0.00944;-0.0211179;-0.0977561;-0.295535
0.00946;-0.0230266;-0.109939;-0.295535
0.00948;-0.0249582;-0.119185;-0.295535
0.0095;-0.0267375;-0.133719;-0.295535
0.00952;-0.0287777;-0.141111;-0.295535
0.00954;-0.0304274;-0.153347;-0.295535
0.00956;-0.0323688;-0.163009;-0.295535
0.00958;-0.0343665;-0.172619;-0.295535
0.0096;-0.0361051;-0.182176;-0.295535
0.00962;-0.0380772;-0.193255;-0.295535
0.00964;-0.0398376;-0.203427;-0.295535
0.00966;-0.0416646;-0.211224;-0.295535
0.00968;-0.0436354;-0.223314;-0.295535
0.0097;-0.0454722;-0.230763;-0.295535
0.00972;-0.0469362;-0.235606;-0.295535
0.00974;-0.0458356;-0.231342;-0.295535
0.00976;-0.0439864;-0.224297;-0.295535
0.00978;-0.0419916;-0.212009;-0.295535
0.0098;-0.0403468;-0.20526;-0.295535
0.00982;-0.0384657;-0.194456;-0.295535
0.00984;-0.0363058;-0.187363;-0.295535
0.00986;-0.0346748;-0.176932;-0.295535
0.00988;-0.0328046;-0.160756;-0.295535
0.0099;-0.0306744;-0.152125;-0.295535
0.00992;-0.029164;-0.143094;-0.295535
0.00994;-0.0270398;-0.134536;-0.295535
0.00996;-0.0252526;-0.120775;-0.295535
0.00998;-0.0235802;-0.110409;-0.295535
0.01;-0.0215894;-0.0985816;-0.295535
0.01002;-0.0196757;-0.0926256;-0.464999
0.01004;-0.0177126;-0.0823765;-0.495204
0.01006;-0.0157801;-0.0721033;-0.49522
0.01008;-0.0140799;-0.0610207;-0.49522
0.0101;-0.0122186;-0.0460579;-0.49522
0.01012;-0.0101467;-0.0349672;-0.49522
0.01014;-0.00838034;-0.0232454;-0.49522
0.01016;-0.00661097;-0.0121507;-0.49522
0.01018;-0.00455987;-0.00328552;-0.49522
0.0102;-0.00277467;0.0100872;-0.49522
0.01022;-0.000896553;0.0248517;-0.49522
0.01024;0.000903473;0.0353071;-0.49522
0.01026;0.00272426;0.0469602;-0.49522
0.01028;0.00458359;0.0624935;-0.49522
0.0103;0.00640636;0.0679842;-0.49522
0.01032;0.00840605;0.0856621;-0.4949
0.01034;0.0103445;0.101187;-0.492658
0.01036;0.0120901;0.115487;-0.493843
0.01038;0.0137853;0.123118;-0.494756
0.0104;0.015789;0.136863;-0.49522
0.01042;0.0175208;0.148965;-0.49522
0.01044;0.0195176;0.157082;-0.49522
