t;vds;corrente;vg
0.000499;-0.0386818;-0.0266691;0.635852
0.000998;-0.0390339;-0.0274552;0.644934
0.001497;-0.0394229;-0.0280141;0.642672
0.001996;-0.0398837;-0.0280183;0.645282
0.002495;-0.0403911;-0.0282583;0.648274
0.002994;-0.0408488;-0.0285687;0.649101
0.003493;-0.0414222;-0.028813;0.644964
0.003992;-0.0419505;-0.0289868;0.645125
0.004491;-0.0425127;-0.0291235;0.645252
0.00499;-0.0430438;-0.0293139;0.650311
0.005489;-0.0435452;-0.0297154;0.648305
0.005988;-0.0439959;-0.0304111;0.647447
0.006487;-0.0444105;-0.0309451;0.642387
0.006986;-0.0449692;-0.0309865;0.647797
0.007485;-0.0454806;-0.0309865;0.648783
0.007984;-0.0459027;-0.0309617;0.647414
0.008483;-0.0463664;-0.0310817;0.646397
0.008982;-0.0468789;-0.0315122;0.646301
0.009481;-0.047317;-0.031388;0.64261
0.00998;-0.047758;-0.0312142;0.649706
0.010479;-0.0484125;-0.0324063;0.647096
0.010978;-0.0488447;-0.0319799;0.648275
0.011477;-0.0487679;-0.0314501;0.645792
0.011976;-0.0483254;-0.0314956;0.647255
0.012475;-0.0478014;-0.0311893;0.648306
0.012974;-0.0472746;-0.0311107;0.650343
0.013473;-0.0468186;-0.0309865;0.649802
0.013972;-0.0463299;-0.0309865;0.650725
0.014471;-0.0458674;-0.0308209;0.647924
0.01497;-0.045369;-0.0305559;0.646969
0.015469;-0.0448368;-0.0297278;0.645346
0.015968;-0.0443356;-0.029434;0.643596
0.016467;-0.0439142;-0.0293677;0.64191
0.016966;-0.0434168;-0.0290613;0.641113
0.017465;-0.0429756;-0.0288006;0.642833
0.017964;-0.0425001;-0.0288709;0.639078
0.018463;-0.0418961;-0.0284445;0.640509
0.018962;-0.0413885;-0.0287136;0.64105
0.019461;-0.0409337;-0.0284073;0.646683
0.01996;-0.0403448;-0.0277947;0.642547
0.020459;-0.0398955;-0.0272772;0.641591
0.020958;-0.039419;-0.0271696;0.639618
0.021457;-0.0389314;-0.0269378;0.640318
0.021956;-0.0384212;-0.0269295;0.640509
0.022455;-0.0379457;-0.0268467;0.641337
0.022954;-0.0374413;-0.026619;0.643723
0.023453;-0.0369775;-0.026412;0.6421
0.023952;-0.0364967;-0.0251533;0.646747
0.024451;-0.0360882;-0.025497;0.643214
0.02495;-0.0355325;-0.0249505;0.642704
0.025449;-0.0349908;-0.0249339;0.646173
0.025948;-0.0345754;-0.024967;0.646333
0.026447;-0.0340561;-0.0247932;0.644424
0.026946;-0.0335293;-0.024789;0.640255
0.027445;-0.0331294;-0.0247269;0.641433
0.027944;-0.0326697;-0.0241267;0.639268
0.028443;-0.0320856;-0.0234851;0.6386
0.028942;-0.0315988;-0.0232367;0.636881
0.029441;-0.03107;-0.0229925;0.64051
0.02994;-0.0305616;-0.0227234;0.63615
0.030439;-0.0302075;-0.0228269;0.637104
0.030938;-0.029799;-0.0226986;0.643213
0.031437;-0.0292639;-0.0226696;0.642356
0.031936;-0.0287706;-0.0222225;0.642643
0.032435;-0.0282;-0.0209059;0.641178
0.032934;-0.0277452;-0.0210302;0.640319
0.033433;-0.02717;-0.0210508;0.641559
0.033932;-0.026695;-0.0208604;0.6414
0.034431;-0.0262145;-0.0207362;0.642037
0.03493;-0.0257181;-0.0207776;0.641019
0.035429;-0.0252612;-0.0207445;0.638727
0.035928;-0.0248031;-0.0207196;0.639682
0.036427;-0.0243019;-0.0206534;0.63879
0.036926;-0.0238628;-0.020434;0.640095
0.037425;-0.0234264;-0.0205126;0.635481
0.037924;-0.023011;-0.0206285;0.635449
0.038423;-0.0224771;-0.0198007;0.637168
0.038922;-0.0219374;-0.0191631;0.641146
0.039421;-0.0214914;-0.0187781;0.63844
0.03992;-0.0209879;-0.0186581;0.638695
0.040419;-0.0205035;-0.0185546;0.64003
0.040918;-0.0200396;-0.0182524;0.639968
0.041417;-0.0195699;-0.017975;0.639714
0.041916;-0.0190775;-0.0178384;0.6386
0.042415;-0.0186471;-0.0167372;0.641464
0.042914;-0.0181141;-0.016526;0.641814
0.043413;-0.0176927;-0.016526;0.640413
0.043912;-0.0172507;-0.0165219;0.637422
0.044411;-0.01678;-0.015934;0.640571
0.04491;-0.0162973;-0.0158471;0.643754
0.045409;-0.0157801;-0.0151723;0.644519
0.045908;-0.0153676;-0.0156277;0.644264
0.046407;-0.0148072;-0.0153007;0.645315
0.046906;-0.0143404;-0.0145845;0.643945
0.047405;-0.0139308;-0.0143816;0.643246
0.047904;-0.0133584;-0.0143071;0.645505
0.048403;-0.0128412;-0.0137441;0.646205
0.048902;-0.0123902;-0.0131231;0.646652
0.049401;-0.0119768;-0.0130113;0.642005
0.0499;-0.0114646;-0.0127423;0.639364
0.050399;-0.0109425;-0.012469;0.644519
0.050898;-0.0104777;-0.0123904;0.645568
0.051397;-0.00994084;-0.0123407;0.644043
0.051896;-0.00940695;-0.0123076;0.637327
0.052395;-0.00887004;-0.0123407;0.645123
0.052894;-0.00840726;-0.0123697;0.641847
0.053393;-0.00792264;-0.012084;0.637709
0.053892;-0.00745296;-0.0117611;0.636977
0.054391;-0.00702857;-0.0119309;0.638759
0.05489;-0.00650946;-0.0119391;0.636531
0.055389;-0.00598841;-0.010987;0.636595
0.055888;-0.00554133;-0.010544;0.636882
0.056387;-0.00501828;-0.0103412;0.637167
0.056886;-0.00444588;-0.0103909;0.635417
0.057385;-0.00394652;-0.0102832;0.635863
0.057884;-0.00344916;-0.0100142;0.635926
0.058383;-0.00297347;-0.00891299;0.63844
0.058882;-0.00246424;-0.00884672;0.635449
0.059381;-0.00203001;-0.00887987;0.635545
0.05988;-0.00149611;-0.00832512;0.636468
0.060379;-0.00106583;-0.00833754;0.637995
0.060878;-0.000616798;-0.00830442;0.636468
0.061377;-0.000135203;-0.00815952;0.636372
0.061876;0.000389816;-0.00771656;0.642833
0.062375;0.000860556;-0.00671059;0.639778
0.062874;0.0012711;-0.00710387;0.638186
0.063373;0.0017448;-0.00644978;0.642611
0.063872;0.0022264;-0.00620553;0.637041
0.064371;0.00273663;-0.00619726;0.637932
0.06487;0.00328138;-0.00603995;0.638345
0.065369;0.00387546;-0.00551421;0.640382
0.065868;0.00432547;-0.00525754;0.64
0.066367;0.00478637;-0.00531965;0.638122
0.066866;0.0053183;-0.00493878;0.638346
0.067365;0.00581373;-0.00490981;0.636626
0.067864;0.00614134;-0.00498019;0.637581
0.068363;0.00666836;-0.00445442;0.640382
0.068862;0.00716578;-0.00417705;0.639045
0.069361;0.00760389;-0.00416877;0.6393
0.06986;0.00818322;-0.0039535;0.641655
0.070359;0.00870918;-0.00358507;0.645187
0.070858;0.00921056;-0.0028192;0.642038
0.071357;0.00977011;-0.00267018;0.644614
0.071856;0.010299;-0.00256254;0.64417
0.072355;0.010755;-0.00226861;0.640509
0.072854;0.0111922;-0.00238867;0.636468
0.073353;0.0116492;-0.00234313;0.638345
0.073852;0.0121899;-0.00207404;0.637741
0.074351;0.0126182;-0.00179667;0.640127
0.07485;0.0131442;-0.0020078;0.638377
0.075349;0.0136604;-0.00133301;0.638632
0.075848;0.0140779;-0.000939733;0.642483
0.076347;0.0145565;-0.000670647;0.643883
0.076846;0.0150459;-0.000178011;0.642992
0.077345;0.0155877;-2.0699e-05;0.64735
0.077844;0.0159924;0.000277367;0.649579
0.078343;0.0165086;0.000542314;0.646651
0.078842;0.017006;0.00106393;0.64681
0.079341;0.0174648;0.00145307;0.649006
0.07984;0.0178575;0.00175941;0.648655
0.080339;0.0183935;0.00194984;0.646396
0.080838;0.0187527;0.0019043;0.637932
0.081337;0.0192274;0.00203264;0.643564
0.081836;0.0196853;0.00206576;0.640828
0.082335;0.0201847;0.00281506;0.641528
0.082834;0.0207274;0.00367199;0.640191
0.083333;0.0212909;0.00353952;0.63669
0.083832;0.0217389;0.00376307;0.640669
0.084331;0.0222295;0.00413151;0.638726
0.08483;0.0227397;0.00413151;0.638059
0.085329;0.023239;0.00428883;0.64105
0.085828;0.0236566;0.00433022;0.639395
0.086327;0.0240996;0.00519131;0.639969
0.086826;0.0245663;0.00545624;0.63879
0.087325;0.0250333;0.00515407;0.639427
0.087824;0.0255286;0.00543556;0.6386
0.088323;0.0260428;0.00597785;0.640096
0.088822;0.0265362;0.00615172;0.645696
0.089321;0.0270387;0.00617242;0.641815
0.08982;0.0275458;0.00621381;0.645664
0.090319;0.0280964;0.00625935;0.644615
0.090818;0.0285189;0.00621795;0.643946
0.091317;0.0290083;0.00620139;0.638759
0.091816;0.0295582;0.00625107;0.639937
0.092315;0.0300091;0.00644564;0.642163
0.092814;0.0304353;0.00687618;0.640064
0.093313;0.0310404;0.0077621;0.642864
0.093812;0.0315801;0.00818022;0.642514
0.094311;0.0319524;0.00826302;0.640414
0.09481;0.0324239;0.00826302;0.640572
0.095309;0.0329883;0.00826302;0.638186
0.095808;0.0334524;0.0083334;0.644552
0.096307;0.033842;0.00859008;0.640541
0.096806;0.0343672;0.00865632;0.644233
0.097305;0.0349503;0.00912824;0.646015
0.097804;0.0354318;0.00939731;0.640636
0.098303;0.035953;0.0103288;0.642132
0.098802;0.0364879;0.0104447;0.645219
0.099301;0.0369598;0.0105316;0.643469
0.0998;0.0373702;0.0105192;0.637741
0.100299;0.0378509;0.0109953;0.639905
0.100798;0.0383266;0.0111194;0.640127
0.101297;0.0387834;0.011608;0.643438
0.101796;0.0392314;0.0116245;0.639619
0.102295;0.0398037;0.0117984;0.639841
0.102794;0.040256;0.0121999;0.642196
0.103293;0.0407017;0.0123159;0.639236
0.103792;0.0413333;0.0123324;0.64178
0.104291;0.0417442;0.0124069;0.641369
0.10479;0.0421705;0.0130693;0.641623
0.105289;0.0427299;0.0132432;0.642165
0.105788;0.0431878;0.0126926;0.637136
0.106287;0.0436833;0.0139263;0.639746
0.106786;0.0441222;0.0142533;0.639426
0.107285;0.0446148;0.0143402;0.639046
0.107784;0.0450729;0.0144934;0.640477
0.108283;0.0455556;0.0147625;0.640763
0.108782;0.0460397;0.015371;0.641591
0.109281;0.0464503;0.0158429;0.640954
0.10978;0.0469737;0.0157602;0.638886
0.110279;0.0474924;0.0158595;0.642641
0.110778;0.0479367;0.0162073;0.640669
0.111277;0.0482643;0.0165674;0.64401
0.111776;0.0478457;0.0165426;0.645952
0.112275;0.0473941;0.0165881;0.648337
0.112774;0.0468472;0.0164557;0.640828
0.113273;0.0463259;0.0163066;0.64541
0.113772;0.0459109;0.0154331;0.642068
0.114271;0.0454865;0.0154207;0.642672
0.11477;0.0449789;0.0152096;0.638155
0.115269;0.0444894;0.0149032;0.638727
0.115768;0.0440732;0.0145886;0.638664
0.116267;0.043624;0.0141788;0.636754
0.116766;0.0430989;0.0140546;0.637072
0.117265;0.0426383;0.0129327;0.635799
0.117764;0.0421743;0.0134253;0.640765
0.118263;0.0416137;0.0127298;0.638282
0.118762;0.0411191;0.0126553;0.644074
0.119261;0.040634;0.0123945;0.641686
0.11976;0.04009;0.0123448;0.640158
0.120259;0.0397149;0.0124028;0.639045
0.120758;0.0392168;0.0120219;0.639683
0.121257;0.0386581;0.0109911;0.638981
0.121756;0.0382525;0.0110118;0.63774
0.122255;0.0377829;0.0109911;0.640827
0.122754;0.03731;0.0105564;0.636118
0.123253;0.0368195;0.0103288;0.637995
0.123752;0.0363585;0.0103163;0.638917
0.124251;0.0358208;0.0103246;0.639778
0.12475;0.0352483;0.00999343;0.636658
0.125249;0.0347747;0.0102211;0.638282
0.125748;0.034306;0.00967883;0.636849
0.126247;0.0337335;0.00871014;0.636945
0.126746;0.0332577;0.00854454;0.637804
0.127245;0.0328818;0.00834168;0.640987
0.127744;0.0323599;0.00835824;0.638536
0.128243;0.0318654;0.00839136;0.639046
0.128742;0.0313226;0.00826302;0.636468
0.129241;0.0308548;0.0082092;0.638409
0.12974;0.0302292;0.00801048;0.640635
0.130239;0.0298612;0.00798151;0.638728
0.130738;0.0293992;0.00748473;0.636309
0.131237;0.0288426;0.00687618;0.635895
0.131736;0.0283273;0.00691342;0.637359
0.132235;0.0278646;0.00625107;0.637326
0.132734;0.0273358;0.00619726;0.635895
0.133233;0.0268175;0.00612688;0.637677
0.133732;0.0263369;0.00587437;0.635481
0.134231;0.0259371;0.00553904;0.638058
0.13473;0.0253639;0.00464899;0.636849
0.135229;0.0249226;0.00430125;0.638887
0.135728;0.0244884;0.00431367;0.64
0.136227;0.0240266;0.00423915;0.643882
0.136726;0.0235963;0.00422673;0.638599
0.137225;0.0230357;0.00413151;0.639968
0.137724;0.0225452;0.00404458;0.638919
0.138223;0.0220114;0.00394108;0.635831
0.138722;0.0215012;0.00345673;0.636404
0.139221;0.0210264;0.00351469;0.636467
0.13972;0.0204374;0.00283991;0.636117
0.140219;0.0200268;0.00286888;0.638981
0.140718;0.0196389;0.00271985;0.645537
0.141217;0.0191446;0.00231415;0.643787
0.141716;0.0186658;0.00231829;0.648083
0.142215;0.0182395;0.00218581;0.64662
0.142714;0.0177549;0.00192914;0.639522
0.143213;0.0172882;0.00152758;0.636977
0.143712;0.0168303;0.00131231;0.63564
0.144211;0.0164286;0.0016228;0.636627
0.14471;0.0158621;0.000637529;0.635322
0.145209;0.0153528;6.2097e-05;0.635927
0.145708;0.0148576;2.0699e-05;0.635481
0.146207;0.0143749;-2.0699e-05;0.636181
0.146706;0.0139318;0.000103495;0.637614
0.147205;0.0134877;-6.2097e-05;0.636626
0.147704;0.013013;0;0.638026
0.148203;0.0124425;-0.000397421;0.637103
0.148702;0.0120419;-0.000985271;0.637645
0.149201;0.0115909;-0.00153172;0.639427
0.1497;0.0110077;-0.00206576;0.635513
0.150199;0.0105122;-0.0020906;0.635672
0.150698;0.0100523;-0.00211129;0.640477
0.151197;0.00954909;-0.00259979;0.637359
0.151696;0.00886413;-0.00295167;0.64191
0.152195;0.00848226;-0.00380033;0.637773
0.152694;0.00803022;-0.00398247;0.639618
0.153193;0.00753586;-0.00404871;0.642164
0.153692;0.00710851;-0.00402801;0.639172
0.154191;0.00668117;-0.00425571;0.636372
0.15469;0.00608316;-0.00438404;0.637104
0.155189;0.00563607;-0.00493877;0.638696
0.155688;0.00509821;-0.00535689;0.638822
0.156187;0.0046255;-0.00590333;0.644296
0.156686;0.00412712;-0.00603996;0.648496
0.157185;0.00358534;-0.00617656;0.643945
0.157684;0.00309388;-0.00616;0.645251
0.158183;0.00253529;-0.00625521;0.642577
0.158682;0.00200336;-0.00645392;0.642418
0.159181;0.00164218;-0.00650774;0.637263
0.15968;0.00120596;-0.00712044;0.639778
0.160179;0.000692787;-0.00805189;0.637963
0.160678;0.000276326;-0.00818436;0.6379
0.161177;-0.000194415;-0.00823404;0.636881
0.161676;-0.000725354;-0.00825474;0.638123
0.162175;-0.00116156;-0.00830856;0.638091
0.162674;-0.00160565;-0.0086646;0.63809
0.163173;-0.00211488;-0.00850313;0.638982
0.163672;-0.0026113;-0.00889226;0.641369
0.164171;-0.00305045;-0.00915723;0.637772
0.16467;-0.00362086;-0.00948014;0.635608
0.165169;-0.00411428;-0.00916138;0.636722
0.165668;-0.00456825;-0.00897093;0.636945
0.166167;-0.00513672;-0.010188;0.635608
0.166666;-0.00556503;-0.0103288;0.636054
0.167165;-0.00602589;-0.0103288;0.635354
0.167664;-0.0064996;-0.0104737;0.635449
0.168163;-0.00712927;-0.0108214;0.635513
0.168662;-0.0075743;-0.0115169;0.635322
0.169161;-0.00810328;-0.012084;0.63529
0.16966;-0.00857597;-0.012349;0.635704
0.170159;-0.00909411;-0.0126222;0.635481
0.170658;-0.00959048;-0.0125891;0.635704
0.171157;-0.0100681;-0.012647;0.637263
0.171656;-0.0105754;-0.0130817;0.636531
0.172155;-0.0110304;-0.0134957;0.63755
0.172654;-0.0114597;-0.0134791;0.636977
0.173153;-0.0119994;-0.0141829;0.637614
0.173652;-0.0125225;-0.0144313;0.639555
0.174151;-0.0130416;-0.0147335;0.635672
0.17465;-0.0135765;-0.0147045;0.63755
0.175149;-0.0141361;-0.0151765;0.636658
0.175648;-0.014524;-0.0156526;0.63669
0.176147;-0.0149847;-0.0155159;0.639745
0.176646;-0.0154861;-0.0157478;0.640509
0.177145;-0.0159479;-0.0160707;0.644933
0.177644;-0.0164118;-0.016526;0.644584
0.178143;-0.0169142;-0.0164639;0.648019
0.178642;-0.0173908;-0.0165964;0.644679
0.179141;-0.017822;-0.0166461;0.645154
0.17964;-0.0182701;-0.0167082;0.643246
0.180139;-0.0187379;-0.0172629;0.644902
0.180638;-0.0192037;-0.0176604;0.64522
0.181137;-0.0196488;-0.0182275;0.645187
0.181636;-0.0201374;-0.0179543;0.647637
0.182135;-0.020607;-0.0180206;0.645887
0.182634;-0.0211479;-0.0185918;0.6442
0.183133;-0.021658;-0.0188899;0.639331
0.183632;-0.0221376;-0.0190265;0.638536
0.184131;-0.0225888;-0.0188402;0.639268
0.18463;-0.0231008;-0.019428;0.639809
0.185129;-0.0236171;-0.0205209;0.637676
0.185628;-0.0239594;-0.020169;0.642259
0.186127;-0.0243511;-0.0205623;0.646014
0.186626;-0.0249227;-0.0206782;0.646109
0.187125;-0.0253509;-0.0209349;0.646205
0.187624;-0.0258781;-0.0213158;0.642514
0.188123;-0.0264118;-0.0216428;0.642865
0.188622;-0.0269904;-0.0222515;0.637932
0.189121;-0.0274511;-0.0225412;0.637072
0.18962;-0.0279523;-0.0225413;0.639968
0.190119;-0.0284794;-0.0225785;0.639523
0.190618;-0.0288582;-0.0225868;0.640701
0.191117;-0.0293697;-0.0224792;0.642227
0.191616;-0.0299301;-0.0227317;0.641431
0.192115;-0.0303188;-0.0227524;0.641814
0.192614;-0.0307888;-0.0233443;0.638091
0.193113;-0.031286;-0.0242012;0.638185
0.193612;-0.0317678;-0.0244827;0.640192
0.194111;-0.0322976;-0.0244869;0.639204
0.19461;-0.0327899;-0.0245448;0.638823
0.195109;-0.0333073;-0.0246897;0.63914
0.195608;-0.0338095;-0.0248677;0.639904
0.196107;-0.0342546;-0.0251575;0.638155
0.196606;-0.0347628;-0.0255964;0.63876
0.197105;-0.0352828;-0.02606;0.637931
0.197604;-0.0356944;-0.0265279;0.636277
0.198103;-0.0362697;-0.0267846;0.63599
0.198602;-0.0366558;-0.0270164;0.638823
0.199101;-0.0371177;-0.0269999;0.636627
0.1996;-0.0376011;-0.0269336;0.638631
0.200099;-0.038069;-0.0272027;0.637932
0.200598;-0.0386088;-0.027625;0.637327
0.201097;-0.0391376;-0.0274884;0.642863
0.201596;-0.0396666;-0.028043;0.642355
0.202095;-0.0401504;-0.0282417;0.642228
0.202594;-0.0406514;-0.0284321;0.641241
0.203093;-0.041063;-0.0287054;0.643023
0.203592;-0.041596;-0.0290282;0.640604
0.204091;-0.0420857;-0.0290489;0.636468
0.20459;-0.0426144;-0.0291069;0.637804
0.205089;-0.0432214;-0.0300508;0.635449
0.205588;-0.0436162;-0.0299805;0.637709
0.206087;-0.0440906;-0.0305518;0.635545
0.206586;-0.0445871;-0.0301916;0.637709
0.207085;-0.0450552;-0.0306926;0.636977
0.207584;-0.0454935;-0.0307256;0.637709
0.208083;-0.0460417;-0.0307215;0.636213
0.208582;-0.0464602;-0.0307712;0.641305
0.209081;-0.0469589;-0.0309368;0.639936
0.20958;-0.0473899;-0.0310734;0.643182
0.210079;-0.0479909;-0.0312721;0.640573
0.210578;-0.0484233;-0.0314335;0.6428
0.211077;-0.0488674;-0.0321869;0.642482
0.211576;-0.0486899;-0.0317026;0.646588
0.212075;-0.048202;-0.0312473;0.638631
0.212574;-0.0476161;-0.0314418;0.639713
0.213073;-0.0471166;-0.031119;0.638217
0.213572;-0.0466804;-0.0309865;0.644519
0.214071;-0.0462086;-0.0309285;0.638918
0.21457;-0.0458112;-0.0309782;0.638155
0.215069;-0.0453611;-0.0306967;0.641464
0.215568;-0.0449078;-0.0305145;0.6372
0.216067;-0.0442646;-0.0295126;0.640859
0.216566;-0.0438629;-0.0296575;0.640573
0.217065;-0.043399;-0.0290779;0.642355
0.217564;-0.0429155;-0.0288626;0.63911
0.218063;-0.0423244;-0.0289206;0.640923
0.218562;-0.0417865;-0.0289164;0.640732
0.219061;-0.0412198;-0.0287923;0.641018
0.21956;-0.0407808;-0.0283535;0.644359
0.220059;-0.0403428;-0.0283949;0.64347
0.220558;-0.0398214;-0.027952;0.647096
0.221057;-0.0393865;-0.0277615;0.648084
0.221556;-0.0389136;-0.027153;0.647637
0.222055;-0.0383413;-0.026855;0.646811
0.222554;-0.0377838;-0.0268053;0.646047
0.223053;-0.0373751;-0.0268343;0.64786
0.223552;-0.0369015;-0.0267349;0.647765
0.224051;-0.0364009;-0.026677;0.645665
0.22455;-0.035883;-0.0263706;0.641941
0.225049;-0.0354111;-0.0253645;0.644488
0.225548;-0.0349533;-0.0256088;0.64191
0.226047;-0.0344561;-0.0258033;0.636754
0.226546;-0.0339762;-0.0250705;0.636976
0.227045;-0.0335836;-0.0250747;0.639618
0.227544;-0.0330583;-0.0247807;0.646652
0.228043;-0.0324911;-0.0247642;0.643213
0.228542;-0.0320866;-0.024789;0.64035
0.229041;-0.0314903;-0.024611;0.6386
0.22954;-0.030996;-0.0240439;0.641623
0.230039;-0.0305576;-0.0235099;0.643564
0.230538;-0.0301275;-0.022947;0.640731
0.231037;-0.0296026;-0.0227317;0.640765
0.231536;-0.0291257;-0.0226075;0.637612
0.232035;-0.0286018;-0.0224005;0.637773
0.232534;-0.0280885;-0.0217049;0.639554
0.233033;-0.0275932;-0.0219243;0.637327
0.233532;-0.0271631;-0.021142;0.64035
0.234031;-0.0266635;-0.0208397;0.641655
0.23453;-0.0261909;-0.0206699;0.63809
0.235029;-0.0257181;-0.0206451;0.638441
0.235528;-0.025199;-0.0205043;0.638027
0.236027;-0.0246571;-0.0203884;0.637359
0.236526;-0.0241835;-0.0206617;0.636022
0.237025;-0.0237108;-0.0194363;0.637645
0.237524;-0.0231856;-0.0190596;0.641209
0.238023;-0.0227645;-0.0189561;0.642991
0.238522;-0.0223439;-0.0186498;0.642131
0.239021;-0.0218022;-0.0185918;0.639458
0.23952;-0.0212604;-0.0183765;0.641687
0.240019;-0.0209;-0.0183807;0.640637
0.240518;-0.0204354;-0.0183476;0.640158
0.241017;-0.0199083;-0.0179709;0.639141
0.241516;-0.0194189;-0.0175403;0.641845
0.242015;-0.0189679;-0.0171967;0.639109
0.242514;-0.0184881;-0.01682;0.638122
0.243013;-0.0180283;-0.016526;0.637614
0.243512;-0.0176572;-0.016526;0.636977
0.244011;-0.017156;-0.0161328;0.638695
0.24451;-0.0166438;-0.016112;0.641401
0.245009;-0.0161819;-0.0160707;0.638757
0.245508;-0.0156647;-0.0146756;0.640987
0.246007;-0.0152108;-0.0147459;0.643404
0.246506;-0.0147283;-0.0146217;0.642674
0.247005;-0.0142861;-0.0141208;0.640986
0.247504;-0.0137749;-0.0138766;0.64261
0.248003;-0.0133031;-0.0143982;0.638664
0.248502;-0.0128136;-0.0140546;0.638505
0.249001;-0.0122985;-0.0133964;0.637295
0.2495;-0.0117508;-0.0129203;0.639714
0.249999;-0.0112317;-0.0126553;0.637868
0.250498;-0.0106968;-0.0129368;0.636626
0.250997;-0.0101559;-0.0123945;0.638662
0.251496;-0.00972081;-0.012556;0.638727
0.251995;-0.00925791;-0.0123655;0.637995
0.252494;-0.008799;-0.0122662;0.641273
0.252993;-0.00830066;-0.0120343;0.640318
