t;vds;corrente;vg
0.000499;-0.0382555;-0.0270151;-0.211626
0.000998;-0.0386699;-0.0269502;-0.209586
0.001497;-0.0391336;-0.0274966;-0.211146
0.001996;-0.0395808;-0.0277946;-0.212515
0.002495;-0.0401415;-0.0283825;-0.217798
0.002994;-0.0406346;-0.0285025;-0.21592
0.003493;-0.0410284;-0.0287757;-0.214583
0.003992;-0.041676;-0.0288999;-0.217989
0.004491;-0.0421488;-0.028697;-0.213151
0.00499;-0.0427161;-0.0289247;-0.212387
0.005489;-0.0432776;-0.0290448;-0.214042
0.005988;-0.0437602;-0.0292393;-0.209682
0.006487;-0.0441755;-0.0296824;-0.210255
0.006986;-0.0446385;-0.0306636;-0.210764
0.007485;-0.0451766;-0.0307215;-0.212228
0.007984;-0.0456405;-0.0304484;-0.211496
0.008483;-0.0460624;-0.0309699;-0.21627
0.008982;-0.0465333;-0.0308913;-0.213469
0.009481;-0.0470902;-0.0309865;-0.207931
0.00998;-0.0475793;-0.0311976;-0.210096
0.010479;-0.0480758;-0.0323773;-0.215061
0.010978;-0.0486268;-0.032456;-0.210223
0.011477;-0.048972;-0.0322573;-0.213151
0.011976;-0.0486227;-0.0321455;-0.216207
0.012475;-0.0481042;-0.031388;-0.213756
0.012974;-0.0476408;-0.0310196;-0.21853
0.013473;-0.0470535;-0.0310569;-0.217671
0.013972;-0.0465579;-0.0309865;-0.215315
0.014471;-0.0460923;-0.0309451;-0.21226
0.01497;-0.0455822;-0.0308996;-0.213883
0.015469;-0.0451399;-0.0303655;-0.215729
0.015968;-0.0447193;-0.0302661;-0.211751
0.016467;-0.0441867;-0.0300674;-0.208791
0.016966;-0.0437059;-0.0295127;-0.209682
0.017465;-0.0432895;-0.0292104;-0.210032
0.017964;-0.0427517;-0.0291234;-0.209586
0.018463;-0.0421753;-0.0287757;-0.207868
0.018962;-0.0416591;-0.0288544;-0.209077
0.019461;-0.0412178;-0.0287467;-0.211114
0.01996;-0.0406606;-0.0286267;-0.211305
0.020459;-0.0401561;-0.0282459;-0.208854
0.020958;-0.0397119;-0.0278857;-0.213883
0.021457;-0.0392494;-0.0274842;-0.214329
0.021956;-0.038739;-0.0270744;-0.210605
0.022455;-0.0383048;-0.0270289;-0.212069
0.022954;-0.0377355;-0.0267887;-0.21191
0.023453;-0.0372242;-0.0267349;-0.213406
0.023952;-0.0368333;-0.0265321;-0.216844
0.024451;-0.0363358;-0.0262547;-0.213883
0.02495;-0.0359067;-0.02647;-0.216525
0.025449;-0.0353124;-0.0261967;-0.21818
0.025948;-0.0348576;-0.0259069;-0.213947
0.026447;-0.0344077;-0.0251326;-0.218912
0.026946;-0.0338341;-0.0248553;-0.217353
0.027445;-0.0334632;-0.025261;-0.21939
0.027944;-0.0329765;-0.0248014;-0.220185
0.028443;-0.0324053;-0.024789;-0.221013
0.028942;-0.0318782;-0.0243833;-0.215093
0.029441;-0.0314528;-0.0240398;-0.213151
0.02994;-0.0309387;-0.0236797;-0.214647
0.030439;-0.030458;-0.0232699;-0.215156
0.030938;-0.0300486;-0.0230629;-0.217925
0.031437;-0.029573;-0.0228724;-0.217544
0.031936;-0.0290537;-0.0226655;-0.21382
0.032435;-0.0285988;-0.0227234;-0.216111
0.032934;-0.0280678;-0.0222887;-0.214743
0.033433;-0.0275568;-0.0224667;-0.219262
0.033932;-0.0270248;-0.0217256;-0.21382
0.034431;-0.0265392;-0.0209473;-0.212737
0.03493;-0.0260438;-0.0210219;-0.213979
0.035429;-0.0255572;-0.0209473;-0.216239
0.035928;-0.02513;-0.0206203;-0.219135
0.036427;-0.024664;-0.0205333;-0.215793
0.036926;-0.0241835;-0.0206078;-0.217798
0.037425;-0.0237316;-0.0201318;-0.21331
0.037924;-0.0232902;-0.0197385;-0.218117
0.038423;-0.0228325;-0.0198834;-0.217225
0.038922;-0.0222541;-0.0192211;-0.217034
0.039421;-0.0217814;-0.0189603;-0.216143
0.03992;-0.0212811;-0.0187905;-0.212992
0.040419;-0.020752;-0.0186374;-0.214615
0.040918;-0.0203673;-0.018538;-0.216525
0.041417;-0.0198412;-0.0184718;-0.21417
0.041916;-0.0192955;-0.0185256;-0.214711
0.042415;-0.0188327;-0.018153;-0.216398
0.042914;-0.0184625;-0.0180329;-0.218307
0.043413;-0.0179187;-0.0177721;-0.216939
0.043912;-0.0174757;-0.0170725;-0.213024
0.044411;-0.0170583;-0.0166378;-0.216016
0.04491;-0.0165747;-0.0165385;-0.217735
0.045409;-0.0160298;-0.0165302;-0.216334
0.045908;-0.0155788;-0.01617;-0.212324
0.046407;-0.015049;-0.0163687;-0.216366
0.046906;-0.0145476;-0.0158306;-0.213374
0.047405;-0.0141667;-0.0158761;-0.215857
0.047904;-0.0137058;-0.0150895;-0.216048
0.048403;-0.0131501;-0.0147418;-0.214138
0.048902;-0.0126231;-0.0143568;-0.21261
0.049401;-0.0121969;-0.014216;-0.216812
0.0499;-0.011737;-0.0141539;-0.218053
0.050399;-0.0112189;-0.0133591;-0.218148
0.050898;-0.0107599;-0.0130859;-0.215506
0.051397;-0.0102359;-0.0125684;-0.21783
0.051896;-0.00959054;-0.0124193;-0.214361
0.052395;-0.00917797;-0.0124276;-0.219103
0.052894;-0.00865494;-0.0123945;-0.219231
0.053393;-0.00816445;-0.0121875;-0.215602
0.053892;-0.00768387;-0.0111526;-0.216334
0.054391;-0.00728616;-0.0112064;-0.218944
0.05489;-0.00676605;-0.0107593;-0.22149
0.055389;-0.0062085;-0.0104736;-0.217798
0.055888;-0.00573377;-0.0103577;-0.221649
0.056387;-0.00517222;-0.0098237;-0.218148
0.056886;-0.00473703;-0.0102046;-0.221681
0.057385;-0.00428205;-0.00993137;-0.221904
0.057884;-0.00375803;-0.00959188;-0.221554
0.058383;-0.00318862;-0.00956291;-0.221681
0.058882;-0.00270996;-0.00877637;-0.219803
0.059381;-0.00229647;-0.00871428;-0.218276
0.05988;-0.00178823;-0.0082713;-0.213883
0.060379;-0.0013086;-0.0082506;-0.216939
0.060878;-0.000854635;-0.0080643;-0.215061
0.061377;-0.000340472;-0.00741435;-0.220185
0.061876;0.000187507;-0.00682234;-0.219421
0.062375;0.000604955;-0.00629247;-0.215252
0.062874;0.00101155;-0.00628005;-0.214552
0.063373;0.00153065;-0.00629661;-0.215889
0.063872;0.00200534;-0.0064415;-0.217448
0.064371;0.00247115;-0.00617242;-0.21643
0.06487;0.00305933;-0.00577916;-0.215125
0.065369;0.00357645;-0.00608962;-0.219421
0.065868;0.00402151;-0.00568394;-0.217798
0.066367;0.00460674;-0.00526996;-0.211846
0.066866;0.00511501;-0.00532379;-0.214074
0.067365;0.00553345;-0.00473594;-0.214106
0.067864;0.00598641;-0.00411081;-0.213629
0.068363;0.00648874;-0.00415635;-0.214965
0.068862;0.00698023;-0.00417291;-0.214838
0.069361;0.00741545;-0.0039949;-0.213151
0.06986;0.00787528;-0.00316281;-0.21296
0.070359;0.00839343;-0.00257082;-0.212801
0.070858;0.00883254;-0.00252114;-0.211401
0.071357;0.00945527;-0.00229345;-0.21051
0.071856;0.0100247;-0.00229759;-0.210605
0.072355;0.0105458;-0.00213199;-0.211496
0.072854;0.0109564;-0.00205334;-0.213724
0.073353;0.0114745;-0.00191672;-0.214074
0.073852;0.0119639;-0.00152344;-0.216748
0.074351;0.0123843;-0.000306345;-0.209013
0.07485;0.0128709;-0.000434679;-0.212037
0.075349;0.0134344;-0.000149033;-0.215379
0.075848;0.0138282;-0.000591992;-0.217862
0.076347;0.0143167;-0.000285646;-0.218658
0.076846;0.0147737;-8.2796e-06;-0.22079
0.077345;0.0152137;-8.2796e-06;-0.218976
0.077844;0.0157219;0.000343604;-0.2107
0.078343;0.0162579;0.000542314;-0.213661
0.078842;0.0167968;0.000678927;-0.215061
0.079341;0.0172379;0.00196226;-0.213183
0.07984;0.0176246;0.00179253;-0.217575
0.080339;0.0181112;0.0020078;-0.217671
0.080838;0.018584;0.00206576;-0.21783
0.081337;0.0189886;0.00207403;-0.218658
0.081836;0.0195037;0.00261636;-0.217321
0.082335;0.019943;0.0028399;-0.218467
0.082834;0.0203633;0.00332425;-0.214965
0.083333;0.0209219;0.00311727;-0.217257
0.083832;0.0214656;0.00293098;-0.218467
0.084331;0.0219471;0.00350641;-0.211019
0.08483;0.0224319;0.00368028;-0.212578
0.085329;0.0229577;0.00396592;-0.217862
0.085828;0.0234493;0.00413151;-0.216493
0.086327;0.0239259;0.00420189;-0.212546
0.086826;0.0243067;0.00413151;-0.214711
0.087325;0.0248003;0.00502984;-0.217289
0.087824;0.0252513;0.00512919;-0.219039
0.088323;0.0257814;0.00608134;-0.219708
0.088822;0.026251;0.00579157;-0.220758
0.089321;0.0267238;0.00594474;-0.21904
0.08982;0.02731;0.00616414;-0.222095
0.090319;0.0277806;0.00637941;-0.221077
0.090818;0.0282229;0.00644564;-0.219135
0.091317;0.0287369;0.00659882;-0.219358
0.091816;0.0293105;0.00722806;-0.219199
0.092315;0.0297407;0.00708729;-0.220058
0.092814;0.0302172;0.00758409;-0.219994
0.093313;0.0307137;0.00770828;-0.220822
0.093812;0.031216;0.00809742;-0.220058
0.094311;0.0317006;0.00826302;-0.220695
0.09481;0.03227;0.00826302;-0.221299
0.095309;0.0327149;0.0085197;-0.217512
0.095808;0.0331749;0.00904544;-0.214138
0.096307;0.0336092;0.00976989;-0.214074
0.096806;0.0341341;0.00942217;-0.218308
0.097305;0.034677;0.0100141;-0.21904
0.097804;0.035193;0.0102046;-0.217894
0.098303;0.0357674;0.0100059;-0.21869
0.098802;0.0362303;0.0102128;-0.220504
0.099301;0.0365906;0.0101756;-0.219358
0.0998;0.0370822;0.0103495;-0.221809
0.100299;0.0376366;0.0105813;-0.221809
0.100798;0.0380355;0.0106972;-0.221618
0.101297;0.0384903;0.0119226;-0.217989
0.101796;0.0390321;0.0118853;-0.222318
0.102295;0.0394486;0.01155;-0.221936
0.102794;0.0399469;0.0123821;-0.220058
0.103293;0.0405084;0.0124193;-0.220854
0.103792;0.0409712;0.0123945;-0.222095
0.104291;0.0414261;0.0125932;-0.222127
0.10479;0.041913;0.0130859;-0.221968
0.105289;0.0424546;0.0135537;-0.22235
0.105788;0.0428839;0.0135578;-0.22235
0.106287;0.0433596;0.0141001;-0.22235
0.106786;0.0439071;0.0145058;-0.222191
0.107285;0.04429;0.0148246;-0.22235
0.107784;0.0447737;0.0152179;-0.221586
0.108283;0.045298;0.0153627;-0.22235
0.108782;0.0457894;0.0157933;-0.22235
0.109281;0.0462252;0.0162735;-0.221872
0.10978;0.0466864;0.0165385;-0.219549
0.110279;0.0472864;0.0171594;-0.217703
0.110778;0.0477589;0.01771;-0.216239
0.111277;0.0482249;0.0175196;-0.216939
0.111776;0.0481941;0.0173375;-0.21417
0.112275;0.0477147;0.0166958;-0.219931
0.112774;0.0471186;0.0163066;-0.21678
0.113273;0.0466764;0.0156815;-0.218244
0.113772;0.0462293;0.0154662;-0.219103
0.114271;0.0456937;0.0151682;-0.216939
0.11477;0.0452219;0.0154994;-0.216971
0.115269;0.0447746;0.0150399;-0.215729
0.115768;0.0442724;0.0146631;-0.21748
0.116267;0.0438382;0.0143361;-0.216907
0.116766;0.0433605;0.0144603;-0.217798
0.117265;0.0428908;0.0139552;-0.219485
0.117764;0.0424211;0.0142657;-0.217798
0.118263;0.0419317;0.0133922;-0.220217
0.118762;0.0414764;0.013653;-0.214679
0.119261;0.0408686;0.0132308;-0.215984
0.11976;0.0403715;0.0126263;-0.213597
0.120259;0.0399478;0.0124856;-0.216716
0.120758;0.0394467;0.0123945;-0.220281
0.121257;0.0389393;0.0122993;-0.217607
0.121756;0.0385022;0.0117487;-0.214997
0.122255;0.0380226;0.0115666;-0.21417
0.122754;0.0375321;0.0110491;-0.215889
0.123253;0.037166;0.0106227;-0.21904
0.123752;0.0366477;0.0103288;-0.219103
0.124251;0.0361681;0.0104033;-0.216143
0.12475;0.0355808;0.0102915;-0.216748
0.125249;0.0351536;0.010097;-0.21888
0.125748;0.0346001;0.00965812;-0.219262
0.126247;0.0340275;0.00882606;-0.218021
0.126746;0.0336152;0.00891714;-0.219231
0.127245;0.0330455;0.00830442;-0.220504
0.127744;0.0325937;0.00826302;-0.218371
0.128243;0.0321221;0.00826302;-0.216589
0.128742;0.0316284;0.00820092;-0.219867
0.129241;0.0310967;0.00812227;-0.218116
0.12974;0.0306938;0.00774139;-0.215602
0.130239;0.0301759;0.00776624;-0.211846
0.130738;0.0296895;0.0076586;-0.213597
0.131237;0.0292155;0.00762549;-0.213851
0.131736;0.0287469;0.0067023;-0.211814
0.132235;0.0281516;0.0069507;-0.209841
0.132734;0.0276376;0.00633387;-0.215029
0.133233;0.0271789;0.00643321;-0.215029
0.133732;0.026699;0.00623037;-0.213597
0.134231;0.0261583;0.0060979;-0.213247
0.13473;0.0256737;0.00575017;-0.212769
0.135229;0.0252908;0.0058578;-0.21156
0.135728;0.0247508;0.00563012;-0.211655
0.136227;0.0242979;0.00526582;-0.212801
0.136726;0.0238717;0.00481872;-0.215061
0.137225;0.0233722;0.00440474;-0.211974
0.137724;0.0229045;0.00424743;-0.214361
0.138223;0.0224949;0.00425985;-0.213629
0.138722;0.0219492;0.00409839;-0.211592
0.139221;0.0214262;0.00377549;-0.213533
0.13972;0.0210353;0.00358093;-0.212196
0.140219;0.0204709;0.00314212;-0.213629
0.140718;0.0199142;0.00279023;-0.213056
0.141217;0.0194455;0.00228931;-0.211369
0.141716;0.0190389;0.00200366;-0.213692
0.142215;0.0185335;0.00204506;-0.209905
0.142714;0.0181151;0.0020492;-0.208632
0.143213;0.0176009;0.00120882;-0.213151
0.143712;0.0172142;0.00111774;-0.208886
0.144211;0.0166507;0.000753443;-0.207709
0.14471;0.0162243;0.000579572;-0.212101
0.145209;0.015793;2.48388e-05;-0.211305
0.145708;0.0152049;-0.000293926;-0.214424
0.146207;0.0147441;-0.000186291;-0.215125
0.146706;0.0142377;-0.00080312;-0.211814
0.147205;0.0137561;-0.000641669;-0.210414
0.147704;0.0132281;-0.000765862;-0.20895
0.148203;0.0128274;-0.00113844;-0.21296
0.148702;0.0123715;-0.00141581;-0.210191
0.149201;0.0118821;-0.00173457;-0.209618
0.1497;0.0114498;-0.00209059;-0.21086
0.150199;0.0110225;-0.00205334;-0.207709
0.150698;0.010377;-0.00215683;-0.206945
0.151197;0.00988854;-0.00253355;-0.210637
0.151696;0.00941485;-0.00280678;-0.209523
0.152195;0.00883157;-0.00339049;-0.212833
0.152694;0.00830362;-0.00375479;-0.213247
0.153193;0.00786442;-0.00397006;-0.21331
0.153692;0.00734242;-0.00413151;-0.215379
0.154191;0.00686277;-0.00429296;-0.216207
0.15469;0.0064009;-0.00441717;-0.212387
0.155189;0.00598248;-0.0046614;-0.209968
0.155688;0.00544954;-0.00495949;-0.210032
0.156187;0.0050173;-0.00452893;-0.211051
0.156686;0.00450608;-0.00470696;-0.209332
0.157185;0.00398205;-0.00504227;-0.2107
0.157684;0.00340475;-0.00580812;-0.209045
0.158183;0.00293696;-0.00591989;-0.209205
0.158682;0.00247806;-0.00626763;-0.211051
0.159181;0.00190665;-0.00623865;-0.211273
0.15968;0.00148131;-0.00627177;-0.21121
0.160179;0.0010076;-0.00676854;-0.212769
0.160678;0.000519097;-0.0066692;-0.211496
0.161177;7.00685e-05;-0.0072736;-0.211178
0.161676;-0.000366131;-0.00824646;-0.214424
0.162175;-0.00081812;-0.00820092;-0.21331
0.162674;-0.00131946;-0.00824646;-0.214711
0.163173;-0.00176651;-0.0083127;-0.211624
0.163672;-0.00226193;-0.00868116;-0.21783
0.164171;-0.00279387;-0.00878051;-0.216207
0.16467;-0.0032725;-0.00890054;-0.217098
0.165169;-0.00377382;-0.0101756;-0.218403
0.165668;-0.00428501;-0.00993962;-0.214742
0.166167;-0.00484756;-0.0103163;-0.21452
0.166666;-0.0052877;-0.0103288;-0.216748
0.167165;-0.00579399;-0.0107013;-0.214743
0.167664;-0.0062578;-0.0109704;-0.21557
0.168163;-0.00674238;-0.0117032;-0.215316
0.168662;-0.00720427;-0.0117156;-0.21888
0.169161;-0.00777856;-0.0122993;-0.216971
0.16966;-0.00823948;-0.0123862;-0.215793
0.170159;-0.00869339;-0.0122248;-0.212769
0.170658;-0.00921451;-0.0122952;-0.211432
0.171157;-0.00977998;-0.0124359;-0.210509
0.171656;-0.010229;-0.0124814;-0.207581
0.172155;-0.01076;-0.0125146;-0.208536
0.172654;-0.0112781;-0.0132183;-0.211751
0.173153;-0.0117291;-0.0134171;-0.210255
0.173652;-0.0122353;-0.0141084;-0.209141
0.174151;-0.0127534;-0.0142864;-0.208695
0.17465;-0.0131847;-0.0144396;-0.210287
0.175149;-0.0136762;-0.0148246;-0.210573
0.175648;-0.0141854;-0.0150067;-0.214902
0.176147;-0.0146572;-0.0152137;-0.210064
0.176646;-0.0150479;-0.0158761;-0.207868
0.177145;-0.0156637;-0.0156194;-0.208472
0.177644;-0.0161572;-0.0154;-0.206913
0.178143;-0.0165727;-0.0163025;-0.21086
0.178642;-0.0170484;-0.0164184;-0.208663
0.179141;-0.0175703;-0.0164971;-0.207868
0.17964;-0.0179207;-0.0165716;-0.208536
0.180139;-0.0184478;-0.0169235;-0.20895
0.180638;-0.0189254;-0.0168158;-0.20965
0.181137;-0.0193152;-0.017975;-0.207931
0.181636;-0.0198048;-0.0179336;-0.208695
0.182135;-0.0203238;-0.0181654;-0.209682
0.182634;-0.020841;-0.0185794;-0.211051
0.183133;-0.0212485;-0.0185877;-0.210987
0.183632;-0.0218356;-0.018567;-0.209809
0.184131;-0.0224181;-0.0187864;-0.209204
0.18463;-0.0228265;-0.0188609;-0.2093
0.185129;-0.0233042;-0.0194114;-0.211146
0.185628;-0.0237611;-0.0198213;-0.208759
0.186127;-0.0241735;-0.0201939;-0.208791
0.186626;-0.024663;-0.0204381;-0.217353
0.187125;-0.0250895;-0.0207693;-0.214838
0.187624;-0.0255779;-0.0206575;-0.210032
0.188123;-0.026027;-0.0208314;-0.216748
0.188622;-0.0265411;-0.0211377;-0.215666
0.189121;-0.027089;-0.0217588;-0.214233
0.18962;-0.027531;-0.0216512;-0.213215
0.190119;-0.0280668;-0.0225661;-0.216557
0.190618;-0.0285998;-0.0225495;-0.213724
0.191117;-0.0291613;-0.0226944;-0.212228
0.191616;-0.0295582;-0.0227069;-0.210541
0.192115;-0.0300002;-0.0227193;-0.208854
0.192614;-0.0304896;-0.0230421;-0.211051
0.193113;-0.030923;-0.0232036;-0.211337
0.193612;-0.0314577;-0.0233899;-0.209427
0.194111;-0.031979;-0.0232864;-0.21121
0.19461;-0.0324377;-0.0239818;-0.209364
0.195109;-0.0329182;-0.024255;-0.212865
0.195608;-0.0334149;-0.0247186;-0.213438
0.196107;-0.0339298;-0.0247311;-0.212037
0.196606;-0.0344067;-0.0249422;-0.214329
0.197105;-0.0348595;-0.0249132;-0.213756
0.197604;-0.0354249;-0.0252155;-0.211973
0.198103;-0.0359106;-0.0254721;-0.209841
0.198602;-0.0363388;-0.0263292;-0.207581
0.199101;-0.0368996;-0.0262174;-0.21121
0.1996;-0.0372962;-0.0265859;-0.212005
0.200099;-0.0378085;-0.0268177;-0.211464
0.200598;-0.0382831;-0.0269378;-0.215379
0.201097;-0.0388051;-0.026855;-0.211942
0.201596;-0.0392225;-0.0270454;-0.209491
0.202095;-0.0396745;-0.0283079;-0.216493
0.202594;-0.0402551;-0.0282334;-0.2093
0.203093;-0.0407007;-0.0288751;-0.212769
0.203592;-0.0411774;-0.0288833;-0.210128
0.204091;-0.0417797;-0.0288626;-0.209427
0.20459;-0.0423283;-0.029111;-0.21105
0.205089;-0.0427832;-0.0289247;-0.207963
0.205588;-0.0433072;-0.0289247;-0.207518
0.206087;-0.0438105;-0.0290697;-0.208409
0.206586;-0.0442111;-0.0296493;-0.211019
0.207085;-0.0447421;-0.0302081;-0.211687
0.207584;-0.0452822;-0.0304896;-0.209268
0.208083;-0.045679;-0.0306677;-0.214679
0.208582;-0.0461068;-0.0305725;-0.214424
0.209081;-0.0466124;-0.0309658;-0.213851
0.20958;-0.0471444;-0.0310155;-0.213629
0.210079;-0.0476208;-0.0309865;-0.210732
0.210578;-0.0481429;-0.0312845;-0.2086
0.211077;-0.0486633;-0.0318102;-0.208472
0.211576;-0.048839;-0.0315495;-0.210669
0.212075;-0.0484469;-0.0312348;-0.212897
0.212574;-0.0479602;-0.0311148;-0.208504
0.213073;-0.0474306;-0.0309865;-0.209045
0.213572;-0.0469518;-0.0309865;-0.214106
0.214071;-0.04647;-0.0309037;-0.212706
0.21457;-0.0459365;-0.0304069;-0.209077
0.215069;-0.0454815;-0.0299474;-0.207963
0.215568;-0.0450925;-0.029765;-0.210669
0.216067;-0.0445663;-0.0295458;-0.211783
0.216566;-0.0440811;-0.0294422;-0.219262
0.217065;-0.0437148;-0.0289123;-0.214393
0.217564;-0.0432627;-0.0289289;-0.214997
0.218063;-0.0426008;-0.0288088;-0.213406
0.218562;-0.0420944;-0.0287219;-0.215793
0.219061;-0.0414961;-0.0286598;-0.217385
0.21956;-0.0410738;-0.0287219;-0.216652
0.220059;-0.0405728;-0.0283784;-0.219039
0.220558;-0.0401087;-0.0279727;-0.216716
0.221057;-0.0396093;-0.0274511;-0.218148
0.221556;-0.0390598;-0.0268964;-0.217162
0.222055;-0.0386275;-0.0268591;-0.213788
0.222554;-0.0381381;-0.0267805;-0.215507
0.223053;-0.0376318;-0.0267805;-0.215697
0.223552;-0.0372035;-0.0268095;-0.216716
0.224051;-0.0367612;-0.026412;-0.213629
0.22455;-0.0362184;-0.025671;-0.214297
0.225049;-0.0356697;-0.0259607;-0.217353
0.225548;-0.0351743;-0.0256005;-0.220981
0.226047;-0.0347649;-0.0251326;-0.218817
0.226546;-0.0342289;-0.025054;-0.212737
0.227045;-0.0338006;-0.0248428;-0.214233
0.227544;-0.0332883;-0.0247807;-0.213342
0.228043;-0.0327684;-0.0245407;-0.215506
0.228542;-0.0322938;-0.0243916;-0.212801
0.229041;-0.0319039;-0.0239694;-0.213501
0.22954;-0.0313246;-0.0235513;-0.208154
0.230039;-0.0308617;-0.0234479;-0.210732
0.230538;-0.0304126;-0.0229925;-0.209427
0.231037;-0.0299746;-0.0227234;-0.212483
0.231536;-0.0294347;-0.0227234;-0.213915
0.232035;-0.0289373;-0.0227234;-0.212706
0.232534;-0.0284072;-0.0224792;-0.211401
0.233033;-0.0278626;-0.0223798;-0.211369
0.233532;-0.0274157;-0.0216511;-0.213374
0.234031;-0.0269833;-0.0212288;-0.216684
0.23453;-0.0264149;-0.0208479;-0.215984
0.235029;-0.0259144;-0.0210094;-0.214902
0.235528;-0.0255069;-0.0210881;-0.21923
0.236027;-0.0250016;-0.0205996;-0.215793
0.236526;-0.0245614;-0.0206327;-0.218626
0.237025;-0.0240937;-0.0206161;-0.220408
0.237524;-0.0236131;-0.0200076;-0.214297
0.238023;-0.0230939;-0.0197302;-0.220313
0.238522;-0.0226341;-0.0197758;-0.219453
0.239021;-0.022111;-0.019308;-0.214775
0.23952;-0.0215653;-0.0187409;-0.217671
0.240019;-0.0211538;-0.0187202;-0.217193
0.240518;-0.0206849;-0.0185753;-0.216875
0.241017;-0.0201778;-0.0185049;-0.215316
0.241516;-0.0196745;-0.0183973;-0.219772
0.242015;-0.0191751;-0.0172961;-0.218658
0.242514;-0.0187557;-0.0169235;-0.220281
0.243013;-0.0183046;-0.0166958;-0.220472
0.243512;-0.0178338;-0.0165343;-0.221077
0.244011;-0.0174382;-0.016526;-0.220631
0.24451;-0.0169102;-0.0165799;-0.218498
0.245009;-0.0164385;-0.0163522;-0.217989
0.245508;-0.0159272;-0.0154124;-0.21557
0.246007;-0.0154663;-0.01528;-0.215793
0.246506;-0.0149888;-0.0148494;-0.217544
