t;vds;corrente;vg
0.000499;-0.0395167;-0.0264825;0.0454657
0.000998;-0.039938;-0.0268716;0.0471056
0.001497;-0.0403981;-0.0269957;0.0476467
0.001996;-0.0409712;-0.0279064;0.0476467
0.002495;-0.0414726;-0.0285646;0.0467237
0.002994;-0.0420038;-0.0283411;0.0467237
0.003493;-0.0425285;-0.0288668;0.0468828
0.003992;-0.043029;-0.0289413;0.0470738
0.004491;-0.043484;-0.0290324;0.0476467
0.00499;-0.0440561;-0.0294299;0.0469147
0.005489;-0.0444816;-0.0301296;0.0464372
0.005988;-0.0449702;-0.0302495;0.0476467
0.006487;-0.0454787;-0.0307671;0.0476467
0.006986;-0.0459264;-0.0309782;0.0475194
0.007485;-0.0463427;-0.0309948;0.0474876
0.007984;-0.0468404;-0.0310651;0.0476467
0.008483;-0.0473525;-0.03109;0.0474876
0.008982;-0.0478508;-0.0309865;0.0476467
0.009481;-0.048288;-0.0313383;0.0475831
0.00998;-0.0488762;-0.0316736;0.0476467
0.010479;-0.0488499;-0.0320834;0.0474876
0.010978;-0.0483768;-0.0315867;0.0472011
0.011477;-0.0478507;-0.0311562;0.0474558
0.011976;-0.0474237;-0.0309865;0.0472011
0.012475;-0.0468285;-0.0309865;0.0474558
0.012974;-0.0463003;-0.0309865;0.0473921
0.013473;-0.0458892;-0.0309865;0.0476467
0.013972;-0.0454282;-0.0308043;0.0473921
0.014471;-0.0448822;-0.0306801;0.0471056
0.01497;-0.0444351;-0.0295706;0.04666
0.015469;-0.043931;-0.029819;0.0465009
0.015968;-0.0434306;-0.028991;0.047233
0.016467;-0.0429746;-0.0287923;0.0476467
0.016966;-0.0424507;-0.0288378;0.0472648
0.017465;-0.0418487;-0.0281631;0.0476467
0.017964;-0.0413481;-0.0284156;0.0476149
0.018463;-0.0408814;-0.027952;0.0468828
0.018962;-0.0404139;-0.0277822;0.0476467
0.019461;-0.0398925;-0.0279106;0.0476467
0.01996;-0.0394574;-0.0277822;0.0476467
0.020459;-0.0390163;-0.0269585;0.0475512
0.020958;-0.0384321;-0.026884;0.0472966
0.021457;-0.0379476;-0.0270082;0.0476149
0.021956;-0.0374689;-0.026768;0.0476467
0.022455;-0.0369884;-0.0266521;0.0476467
0.022954;-0.0364582;-0.0263954;0.0476467
0.023453;-0.0359767;-0.0257826;0.0476467
0.023952;-0.0354762;-0.0257247;0.0475512
0.024451;-0.0350391;-0.0252817;0.0476467
0.02495;-0.0346899;-0.0250499;0.0462144
0.025449;-0.034217;-0.0250416;0.0469147
0.025948;-0.0336201;-0.024789;0.0475194
0.026447;-0.0331787;-0.0245282;0.0473921
0.026946;-0.0326726;-0.0246441;0.0468192
0.027445;-0.0321033;-0.0241226;0.0469147
0.027944;-0.0315455;-0.023365;0.047233
0.028443;-0.0310799;-0.023067;0.0476467
0.028942;-0.0306188;-0.0227234;0.0476467
0.029441;-0.0301956;-0.0227234;0.0476467
0.02994;-0.0296559;-0.0226737;0.0476467
0.030439;-0.0292175;-0.0226655;0.0476467
0.030938;-0.0287222;-0.0223342;0.0475512
0.031437;-0.0281862;-0.0219865;0.0476467
0.031936;-0.027757;-0.0216138;0.0476149
0.032435;-0.0272598;-0.0206575;0.0476467
0.032934;-0.0267375;-0.0207113;0.0476467
0.033433;-0.0262382;-0.0205582;0.0476467
0.033932;-0.0256559;-0.0200366;0.0476467
0.034431;-0.025203;-0.0200324;0.0473921
0.03493;-0.024741;-0.018894;0.0476467
0.035429;-0.0243127;-0.0188402;0.0473921
0.035928;-0.0237789;-0.0186995;0.0476467
0.036427;-0.0233583;-0.0185463;0.0476149
0.036926;-0.0228966;-0.0183558;0.0476467
0.037425;-0.0223241;-0.0180288;0.0476467
0.037924;-0.0219196;-0.0174782;0.0465327
0.038423;-0.0214864;-0.017263;0.0463099
0.038922;-0.02098;-0.0169442;0.0465327
0.039421;-0.0204729;-0.016526;0.0476467
0.03992;-0.0199962;-0.0166544;0.046469
0.040419;-0.0194732;-0.016526;0.0474558
0.040918;-0.0189906;-0.0166751;0.0476467
0.041417;-0.0185592;-0.0165633;0.0474239
0.041916;-0.0180273;-0.0165012;0.0476467
0.042415;-0.0176325;-0.0161369;0.0476467
0.042914;-0.0172023;-0.0157105;0.0476467
0.043413;-0.0167662;-0.0159258;0.0467237
0.043912;-0.0162786;-0.0155366;0.0476467
0.044411;-0.0157713;-0.0149405;0.046851
0.04491;-0.0153933;-0.0147294;0.0467874
0.045409;-0.0148635;-0.0144603;0.0475831
0.045908;-0.0142733;-0.0144313;0.0471693
0.046407;-0.0138686;-0.014274;0.0475831
0.046906;-0.0133238;-0.0132059;0.0470101
0.047405;-0.0128038;-0.013297;0.0470101
0.047904;-0.0122353;-0.0126056;0.0471375
0.048403;-0.011891;-0.0123614;0.0474558
0.048902;-0.011363;-0.0124566;0.0476467
0.049401;-0.0108073;-0.012349;0.0476467
0.0499;-0.010377;-0.0123945;0.0476467
0.050399;-0.0098846;-0.0123034;0.0471056
0.050898;-0.00936353;-0.0112519;0.0472966
0.051397;-0.00890754;-0.0114672;0.0472648
0.051896;-0.00843489;-0.0105937;0.0476149
0.052395;-0.00790488;-0.0103536;0.0476467
0.052894;-0.00747566;-0.0103288;0.0472648
0.053393;-0.00693778;-0.0103122;0.0474558
0.053892;-0.00644728;-0.0102874;0.0474558
0.054391;-0.00585319;-0.0101549;0.0476467
0.05489;-0.00538046;-0.00943872;0.0476467
0.055389;-0.00494724;-0.00918623;0.0476467
0.055888;-0.00439357;-0.00854454;0.0474239
0.056387;-0.00386954;-0.00844518;0.0476467
0.056886;-0.00343435;-0.00829614;0.0475194
0.057385;-0.00298334;-0.00826302;0.0462463
0.057884;-0.00251062;-0.00824232;0.0464054
0.058383;-0.00204086;-0.00812226;0.0464372
0.058882;-0.00158494;-0.00792769;0.0465009
0.059381;-0.00104806;-0.00744333;0.0472011
0.05988;-0.000579297;-0.00670231;0.0475194
0.060379;-1.87507e-05;-0.00641666;0.0460235
0.060878;0.000485543;-0.00619726;0.0467237
0.061377;0.000970099;-0.0061186;0.0415674
0.061876;0.00132242;-0.00619726;0.0413128
0.062375;0.00178723;-0.00606893;0.0456097
0.062874;0.00227476;-0.00539415;0.0452277
0.063373;0.00271393;-0.0058661;0.0446867
0.063872;0.00323401;-0.00475663;0.0463417
0.064371;0.00376197;-0.00539002;0.0426815
0.06487;0.00426626;-0.00511682;0.0458007
0.065369;0.00478242;-0.00435921;0.0471375
0.065868;0.00526895;-0.00411909;0.0474558
0.066367;0.00571997;-0.00413151;0.04666
0.066866;0.00628641;-0.00403216;0.0467237
0.067365;0.00675718;-0.00387899;0.0476467
0.067864;0.0072171;-0.00333254;0.0476467
0.068363;0.00772921;-0.00340293;0.0476467
0.068862;0.00821579;-0.00228517;0.0475831
0.069361;0.00875162;-0.00252528;0.0476149
0.06986;0.00921747;-0.00211957;0.0476467
0.070359;0.00980268;-0.00216097;0.0476467
0.070858;0.0102665;-0.00206576;0.0476467
0.071357;0.0108004;-0.00133715;0.0476467
0.071856;0.0112544;-0.00148618;0.0476467
0.072355;0.0117863;-0.00125436;0.0472966
0.072854;0.0122994;-0.000235969;0.0476467
0.073353;0.0127643;-0.000136613;0.0476467
0.073852;0.013314;0;0.0475831
0.074351;0.0137384;0.000248388;0.0476467
0.07485;0.0141795;0.000165592;0.0476467
0.075349;0.0145654;0.000165592;0.0476467
0.075848;0.015113;0.00103081;0.0476467
0.076347;0.0155561;0.00142409;0.0476467
0.076846;0.01602;0.00122538;0.0476467
0.077345;0.0165234;0.00158554;0.0476467
0.077844;0.0170257;0.00186704;0.0476467
0.078343;0.0174253;0.0020492;0.0474239
0.078842;0.0179414;0.00205748;0.0476467
0.079341;0.0184231;0.00207817;0.0476467
0.07984;0.0188178;0.00208645;0.0476467
0.080339;0.0192955;0.00254183;0.0475194
0.080838;0.0198216;0.00355608;0.0476467
0.081337;0.0202361;0.00351469;0.0476467
0.081836;0.0206751;0.0039949;0.0476467
0.082335;0.0212603;0.00413151;0.0471375
0.082834;0.0217498;0.00445028;0.0476467
0.083333;0.0222315;0.00426399;0.0476467
0.083832;0.022717;0.00464901;0.0476467
0.084331;0.0232361;0.004649;0.0476467
0.08483;0.0236467;0.00563425;0.0476467
0.085329;0.0241528;0.00539829;0.0476467
0.085828;0.0246788;0.00547693;0.0474558
0.086327;0.0251685;0.00606892;0.0476467
0.086826;0.0255839;0.00619726;0.0476467
0.087325;0.0260981;0.0060565;0.0476467
0.087824;0.0265509;0.00640838;0.0476467
0.088323;0.0270318;0.00625935;0.0475194
0.088822;0.0275054;0.00682651;0.0476467
0.089321;0.0280628;0.00720322;0.0476467
0.08982;0.0285002;0.00720736;0.0476149
0.090319;0.02895;0.00773311;0.0472648
0.090818;0.029499;0.00779936;0.0472648
0.091317;0.0300071;0.00801049;0.0476467
0.091816;0.0304333;0.00825888;0.0473284
0.092315;0.0310819;0.00834168;0.0472011
0.092814;0.031673;0.00826302;0.0474239
0.093313;0.0320875;0.00826302;0.0474876
0.093812;0.032563;0.00850314;0.0476467
0.094311;0.033011;0.00863146;0.0476467
0.09481;0.0334524;0.00963743;0.0475194
0.095309;0.0338884;0.00938075;0.0471056
0.095808;0.0344442;0.0101922;0.0476467
0.096307;0.0349799;0.0101549;0.0472966
0.096806;0.0353923;0.0103288;0.0476467
0.097305;0.0360191;0.0104695;0.0472966
0.097804;0.0364829;0.0105937;0.0471375
0.098303;0.0369302;0.0113761;0.0470738
0.098802;0.0373781;0.0115583;0.0442728
0.099301;0.0379378;0.0121171;0.045546
0.0998;0.0384163;0.0123076;0.0470738
0.100299;0.0388219;0.0125353;0.0452914
0.100798;0.0393133;0.0125187;0.0449094
0.101297;0.0398126;0.0124442;0.0471693
0.101796;0.0402541;0.0128209;0.0474876
0.102295;0.0407718;0.0128126;0.0469465
0.102794;0.0412761;0.0127216;0.0467873
0.103293;0.0417768;0.0131521;0.0476467
0.103792;0.042206;0.0137648;0.0474876
0.104291;0.0427487;0.013711;0.0476467
0.10479;0.0432875;0.0140877;0.0465964
0.105289;0.0437789;0.0142906;0.0473284
0.105788;0.0442338;0.0144603;0.0458643
0.106287;0.0447223;0.0144644;0.045737
0.106786;0.0452082;0.0149281;0.0473284
0.107285;0.045606;0.0151806;0.047233
0.107784;0.0460308;0.0149902;0.0467237
0.108283;0.0464079;0.0156857;0.0476467
0.108782;0.0469609;0.0164432;0.0476467
0.109281;0.0474382;0.0164681;0.0473921
0.10978;0.0479603;0.016762;0.0476467
0.110279;0.0482652;0.0165012;0.0476467
0.110778;0.0478132;0.0167165;0.0472966
0.111277;0.0473497;0.0166047;0.0476467
0.111776;0.0469154;0.0165923;0.0476467
0.112275;0.0464551;0.0163232;0.0476467
0.112774;0.0459583;0.0162404;0.0476467
0.113273;0.0454845;0.0155532;0.0476149
0.113772;0.0449967;0.0157933;0.0476467
0.114271;0.0445131;0.0157022;0.0476467
0.11477;0.0440119;0.0154042;0.0472011
0.115269;0.0435539;0.015073;0.0469465
0.115768;0.043167;0.0147252;0.0476467
0.116267;0.042665;0.0146631;0.0476467
0.116766;0.0420915;0.0144065;0.0476467
0.117265;0.0415732;0.0138228;0.0471375
0.117764;0.0411694;0.0139883;0.0474558
0.118263;0.0406439;0.0136489;0.0476467
0.118762;0.0400653;0.0126305;0.0440182
0.119261;0.0397218;0.0126346;0.0465964
0.11976;0.0392099;0.0126553;0.0467873
0.120259;0.0386955;0.0123945;0.0474558
0.120758;0.0382624;0.0121503;0.0475512
0.121257;0.0377938;0.0121668;0.0475512
0.121756;0.0372094;0.012084;0.0476467
0.122255;0.0367632;0.0114962;0.0476149
0.122754;0.0363181;0.0115748;0.0476467
0.123253;0.0357764;0.0109704;0.0476467
0.123752;0.0353854;0.0108421;0.0476467
0.124251;0.0348852;0.0105482;0.0476467
0.12475;0.0343701;0.0102087;0.0474876
0.125249;0.0338973;0.0102584;0.0476467
0.125748;0.0333713;0.00999345;0.0476467
0.126247;0.032864;0.00936423;0.0476467
0.126746;0.0323017;0.00934353;0.0476467
0.127245;0.0318456;0.00876396;0.0476467
0.127744;0.0313473;0.00859008;0.0476467
0.128243;0.0308281;0.00829614;0.0476467
0.128742;0.0303318;0.00826302;0.0476467
0.129241;0.0298917;0.00803118;0.0476467
0.12974;0.0293547;0.00752612;0.0465327
0.130239;0.028817;0.00731499;0.0467237
0.130738;0.0284309;0.00690101;0.0464054
0.131237;0.0280471;0.00678096;0.0476467
0.131736;0.0274078;0.00641252;0.0469465
0.132235;0.026932;0.00620139;0.0472011
0.132734;0.0264188;0.00620967;0.047042
0.133233;0.025942;0.00619726;0.0473603
0.133732;0.025429;0.00606892;0.0474239
0.134231;0.0249591;0.00568808;0.0475194
0.13473;0.0243868;0.00561355;0.0475831
0.135229;0.0239378;0.00510439;0.0476467
0.135728;0.0235845;0.00474836;0.0473284
0.136227;0.0231067;0.00454965;0.0476467
0.136726;0.0225759;0.00489325;0.0476467
0.137225;0.0221159;0.0045455;0.0476467
0.137724;0.0216758;0.00420603;0.047233
0.138223;0.0211795;0.00431367;0.0473603
0.138722;0.0206938;0.00410253;0.0476467
0.139221;0.0201601;0.00411495;0.0476467
0.13972;0.0196143;0.00392452;0.0475512
0.140219;0.0191653;0.00406941;0.0475194
0.140718;0.0187172;0.00279024;0.0476467
0.141217;0.0183006;0.00248802;0.0472011
0.141716;0.0177815;0.00211129;0.0476467
0.142215;0.0173267;0.00202436;0.0473921
0.142714;0.0170178;0.00195812;0.0475831
0.143213;0.0165135;0.00197054;0.0476467
0.143712;0.0159904;0.00137855;0.0476467
0.144211;0.0155502;0.00117984;0.0476467
0.14471;0.0150441;0.000939733;0.0476467
0.145209;0.0144855;0.000347743;0.0475194
0.145708;0.0140305;0.000190431;0.0476467
0.146207;0.0135291;0;0.0476467
0.146706;0.0129843;0.00019871;0.0475831
0.147205;0.0125412;-0.000132474;0.0472966
0.147704;0.0121377;-0.000500916;0.0476149
0.148203;0.0116649;-0.000132474;0.0471375
0.148702;0.0111054;-0.000856938;0.0467873
0.149201;0.0106484;-0.00178011;0.0476149
0.1497;0.0101263;-0.0019457;0.04666
0.150199;0.0096231;-0.00213613;0.0465009
0.150698;0.00915428;-0.00208646;0.0465964
0.151197;0.00858489;-0.00240108;0.0467874
0.151696;0.00804009;-0.00227275;0.0475194
0.152195;0.00759309;-0.00272398;0.0475512
0.152694;0.00705818;-0.0035685;0.0472011
0.153193;0.00662096;-0.00350226;0.0465009
0.153692;0.00605157;-0.00413151;0.047042
0.154191;0.00564199;-0.00413979;0.0464372
0.15469;0.00517716;-0.00423087;0.0467873
0.155189;0.00466399;-0.00424743;0.04666
0.155688;0.00418435;-0.00472353;0.0463417
0.156187;0.00369093;-0.00478976;0.0465009
0.156686;0.00318369;-0.0053155;0.0459598
0.157185;0.00264779;-0.00564252;0.0467555
0.157684;0.00214646;-0.00575017;0.0470101
0.158183;0.00166487;-0.0061807;0.047042
0.158682;0.00114478;-0.00622623;0.044432
0.159181;0.000716472;-0.00627591;0.0450049
0.15968;0.000222048;-0.00631317;0.0471693
0.160179;-0.000331591;-0.00657811;0.0476149
0.160678;-0.000752986;-0.00674784;0.0476467
0.161177;-0.00117537;-0.00790286;0.0458325
0.161676;-0.0016698;-0.00817608;0.0476467
0.162175;-0.0020754;-0.00843688;0.0460871
0.162674;-0.00257774;-0.00893368;0.0470101
0.163173;-0.00304354;-0.00925656;0.047042
0.163672;-0.00352316;-0.00914067;0.0476467
0.164171;-0.00400573;-0.00899993;0.0476467
0.16467;-0.0045722;-0.00987754;0.0476467
0.165169;-0.00512882;-0.00997689;0.0476467
0.165668;-0.00562424;-0.0101673;0.0473603
0.166167;-0.00617588;-0.0104116;0.0463417
0.166666;-0.00676804;-0.0105068;0.0456097
0.167165;-0.00718848;-0.0107593;0.0458962
0.167664;-0.00761672;-0.0118356;0.0454823
0.168163;-0.00817138;-0.0118315;0.0465964
0.168662;-0.0086332;-0.0117156;0.0465646
0.169161;-0.00912668;-0.0122579;0.043509
0.16966;-0.00957962;-0.0123904;0.0461508
0.170159;-0.0101747;-0.0123117;0.0438909
0.170658;-0.0105487;-0.0121751;0.04405
0.171157;-0.0110689;-0.0124028;0.0444639
0.171656;-0.0116798;-0.0130279;0.0416629
0.172155;-0.0121741;-0.0128789;0.045737
0.172654;-0.012634;-0.0134998;0.04109
0.173153;-0.0132084;-0.0135785;0.0393394
0.173652;-0.0136762;-0.0143237;0.0412173
0.174151;-0.0141134;-0.014601;0.0401988
0.17465;-0.0145338;-0.0147004;0.0413764
0.175149;-0.0150666;-0.014601;0.0424586
0.175648;-0.0154584;-0.0146176;0.0454506
0.176147;-0.0159075;-0.0147542;0.0445275
0.176646;-0.0164365;-0.0148743;0.0458325
0.177145;-0.0168648;-0.015044;0.045355
0.177644;-0.0173267;-0.0161162;0.044623
0.178143;-0.0177983;-0.0162528;0.0442729
0.178642;-0.0183244;-0.0163066;0.0445912
0.179141;-0.0187783;-0.0165343;0.0441456
0.17964;-0.0192087;-0.016733;0.0473921
0.180139;-0.0197367;-0.0167579;0.0470738
0.180638;-0.020164;-0.0177266;0.0468192
0.181137;-0.0206662;-0.0185256;0.0463736
0.181636;-0.0211518;-0.0185711;0.0457052
0.182135;-0.0216373;-0.0185711;0.0476467
0.182634;-0.0220646;-0.0185628;0.0476467
0.183133;-0.0226144;-0.0187533;0.0470102
0.183632;-0.0231264;-0.0187947;0.0466919
0.184131;-0.0234631;-0.0189727;0.0475512
0.18463;-0.0239209;-0.019842;0.0458961
0.185129;-0.0245021;-0.0201401;0.0472329
0.185628;-0.0250244;-0.0205126;0.045546
0.186127;-0.0254585;-0.0204919;0.0468192
0.186626;-0.0259166;-0.0206451;0.0464372
0.187125;-0.026399;-0.0212495;0.0473284
0.187624;-0.0268058;-0.021589;0.0463099
0.188123;-0.0273948;-0.0222556;0.0473284
0.188622;-0.0279207;-0.0225909;0.0473284
0.189121;-0.0283808;-0.0227151;0.0462463
0.18962;-0.0288691;-0.0227069;0.0472011
0.190119;-0.0293796;-0.0227151;0.0471693
0.190618;-0.0298028;-0.0227234;0.0476467
0.191117;-0.030303;-0.02286;0.0460553
0.191616;-0.0308579;-0.0227896;0.0457688
0.192115;-0.0313373;-0.0234313;0.0472329
0.192614;-0.0318754;-0.0240936;0.0442729
0.193113;-0.0323302;-0.0247476;0.0465645
0.193612;-0.032854;-0.024818;0.044432
0.194111;-0.033249;-0.024789;0.0467555
0.19461;-0.0337601;-0.0252776;0.0467873
0.195109;-0.0342547;-0.0250416;0.0468192
0.195608;-0.0346938;-0.0250954;0.0472966
0.196107;-0.0351664;-0.0251989;0.0465964
0.196606;-0.035722;-0.0257827;0.046851
0.197105;-0.0362026;-0.0260807;0.0454187
0.197604;-0.0366548;-0.0264368;0.0473921
0.198103;-0.0373051;-0.0267432;0.0452914
0.198602;-0.037764;-0.0267142;0.0444639
0.199101;-0.0381637;-0.0265196;0.0454187
0.1996;-0.0386601;-0.0261678;0.0448776
0.200099;-0.0391899;-0.0268467;0.0456097
0.200598;-0.0395473;-0.0269171;0.0462144
0.201097;-0.0400575;-0.027062;0.0451959
0.201596;-0.0406051;-0.0274759;0.0463736
0.202095;-0.0410166;-0.0271448;0.0440819
0.202594;-0.0415309;-0.0282169;0.0455142
0.203093;-0.0420492;-0.0283079;0.0470101
0.203592;-0.0425956;-0.0289165;0.0465327
0.204091;-0.0431385;-0.0291483;0.0473284
0.20459;-0.0435895;-0.029198;0.0472648
0.205089;-0.0440996;-0.0292518;0.0474876
0.205588;-0.0445664;-0.0304317;0.0471693
0.206087;-0.0450325;-0.0304856;0.0466282
0.206586;-0.0455379;-0.0308126;0.0471693
0.207085;-0.0459293;-0.0309327;0.04666
0.207584;-0.0463693;-0.0309865;0.0460553
0.208083;-0.0469619;-0.0309865;0.0469783
0.208582;-0.0474272;-0.0310362;0.0476467
0.209081;-0.0479199;-0.0312017;0.0471375
0.20958;-0.0484461;-0.0315411;0.0462144
0.210079;-0.0489285;-0.0317771;0.0470738
0.210578;-0.0487403;-0.031864;0.0460235
0.211077;-0.0482504;-0.0313425;0.045546
0.211576;-0.0477955;-0.0311397;0.0468828
0.212075;-0.0473457;-0.0309865;0.0467874
0.212574;-0.0467406;-0.0310155;0.0456734
0.213073;-0.0462943;-0.0312638;0.044432
0.213572;-0.0458437;-0.0309865;0.045546
0.214071;-0.0452989;-0.0309741;0.0471375
0.21457;-0.0448101;-0.0306636;0.0465009
0.215069;-0.0443463;-0.030382;0.0466282
0.215568;-0.0438658;-0.0300219;0.0476467
0.216067;-0.0433477;-0.0292187;0.0476467
0.216566;-0.0429539;-0.0291524;0.047233
0.217065;-0.0423915;-0.0290241;0.047042
0.217564;-0.0418152;-0.0288668;0.0469465
0.218063;-0.0413698;-0.0286143;0.0462463
0.218562;-0.0408823;-0.0284404;0.0445593
0.219061;-0.040328;-0.0278609;0.0456097
0.21956;-0.0398126;-0.0270661;0.0476467
0.220059;-0.0394022;-0.027389;0.0473603
0.220558;-0.0388929;-0.0270951;0.0470738
0.221057;-0.0383719;-0.0269129;0.0470102
0.221556;-0.0378826;-0.0268136;0.0476467
0.222055;-0.0374748;-0.026855;0.0471375
0.222554;-0.0368639;-0.0268177;0.0474876
0.223053;-0.0364039;-0.0264492;0.0476467
0.223552;-0.0359382;-0.0261636;0.0474558
0.224051;-0.03542;-0.0259731;0.0469465
0.22455;-0.03497;-0.0250664;0.0475194
0.225049;-0.0345685;-0.024789;0.0476467
0.225548;-0.0341045;-0.0248346;0.0473284
0.226047;-0.0335214;-0.0247725;0.0476467
0.226546;-0.0330376;-0.0247518;0.0470101
0.227045;-0.0325651;-0.0244537;0.0476467
0.227544;-0.0319977;-0.0242261;0.0476467
0.228043;-0.0314952;-0.0236589;0.0472011
0.228542;-0.0310099;-0.023038;0.0476467
0.229041;-0.030607;-0.0229925;0.0476467
0.22954;-0.0301107;-0.023009;0.0476467
0.230039;-0.0296342;-0.0227234;0.0476467
0.230538;-0.0292145;-0.0227234;0.0476467
0.231037;-0.0286827;-0.0226572;0.0476467
0.231536;-0.028195;-0.0221023;0.0474876
0.232035;-0.0276505;-0.0217671;0.0476467
0.232534;-0.0271176;-0.0209722;0.0476467
0.233033;-0.0266181;-0.0207031;0.0476467
0.233532;-0.0261642;-0.0208811;0.0474876
0.234031;-0.0256292;-0.0205251;0.0476467
0.23453;-0.0251932;-0.0203967;0.0471056
0.235029;-0.02474;-0.0200283;0.0475512
0.235528;-0.0242782;-0.0198586;0.0476467
0.236027;-0.0237;-0.0197758;0.0476467
0.236526;-0.0232883;-0.018745;0.047042
0.237025;-0.0228611;-0.0185918;0.0476467
0.237524;-0.0223715;-0.0185504;0.0476467
0.238023;-0.0218791;-0.0185753;0.0476467
0.238522;-0.0214351;-0.0185463;0.0476467
0.239021;-0.020901;-0.0182813;0.0474876
0.23952;-0.0204098;-0.0175196;0.0476467
0.240019;-0.0198935;-0.0179708;0.0467874
0.240518;-0.0194455;-0.0171305;0.0473603
0.241017;-0.0189561;-0.016526;0.0475831
0.241516;-0.0186145;-0.0165385;0.0466282
0.242015;-0.0180214;-0.0164391;0.0476467
0.242514;-0.017596;-0.0165012;0.0472011
0.243013;-0.0171333;-0.0165219;0.0476467
0.243512;-0.0167139;-0.016199;0.0472011
0.244011;-0.0163062;-0.0157353;0.0465009
0.24451;-0.0158088;-0.0154166;0.0473603
0.245009;-0.0152926;-0.0150771;0.0476467
0.245508;-0.0147766;-0.0146673;0.0476467
0.246007;-0.0141943;-0.0143237;0.0476467
0.246506;-0.0137848;-0.014096;0.0476467
0.247005;-0.0133199;-0.0141043;0.0475512
