t;vds;corrente;vg
0.000499;0.0192698;0.00219103;0.0442286
0.000998;0.0196794;0.00286474;0.0473921
0.001497;0.0201759;0.00289787;0.047233
0.001996;0.0206583;0.00355608;0.047233
0.002495;0.0211814;0.00362232;0.0475194
0.002994;0.021733;0.00412323;0.0471375
0.003493;0.022183;0.00388312;0.0476467
0.003992;0.0226263;0.00418533;0.0465963
0.004491;0.0231728;0.00413151;0.0476149
0.00499;0.0236802;0.00430124;0.0458324
0.005489;0.0241065;0.00433023;0.0475831
0.005988;0.0246344;0.00517475;0.0476467
0.006487;0.0251369;0.00560113;0.0475194
0.006986;0.0256135;0.00595715;0.0476467
0.007485;0.0260833;0.00619726;0.0476467
0.007984;0.026546;0.00619726;0.0476467
0.008483;0.0270367;0.00637112;0.0473603
0.008982;0.0274323;0.00650775;0.0473921
0.009481;0.0279484;0.00681409;0.0462144
0.00998;0.0284469;0.00695897;0.046851
0.010479;0.0289382;0.0070873;0.0433816
0.010978;0.0294309;0.00751785;0.0452914
0.011477;0.0300288;0.00806431;0.0472011
0.011976;0.0305409;0.00805188;0.0476467
0.012475;0.0310414;0.00826302;0.0476467
0.012974;0.0315781;0.00825474;0.0471693
0.013473;0.0320411;0.0084576;0.0476467
0.013972;0.0325009;0.00855279;0.0470102
0.014471;0.0329656;0.00866046;0.047042
0.01497;0.0334218;0.00946772;0.0476467
0.015469;0.0338439;0.00903718;0.0471375
0.015968;0.0343711;0.00949671;0.0470101
0.016467;0.0349118;0.0102211;0.0473284
0.016966;0.0354327;0.010068;0.0454187
0.017465;0.0359402;0.0103495;0.0474239
0.017964;0.036478;0.010337;0.0476467
0.018463;0.0369253;0.0106848;0.0470738
0.018962;0.0373751;0.0108752;0.0469783
0.019461;0.0378855;0.0114506;0.0474876
0.01996;0.0383571;0.0116659;0.0474876
0.020459;0.0388229;0.0118522;0.0469146
0.020958;0.0392986;0.0119433;0.0474239
0.021457;0.0397751;0.0121254;0.0473603
0.021956;0.0402234;0.0123821;0.0467874
0.022455;0.0406514;0.0124069;0.0474239
0.022954;0.0412031;0.0128458;0.0475194
0.023453;0.0417067;0.0135702;0.0476467
0.023952;0.0422031;0.0138062;0.0475512
0.024451;0.0427101;0.0140918;0.0476149
0.02495;0.0432204;0.0141829;0.0476467
0.025449;0.0437464;0.0145017;0.0476467
0.025948;0.0441716;0.0144603;0.0476467
0.026447;0.0446898;0.0148453;0.0476467
0.026946;0.0450492;0.0147459;0.0475194
0.027445;0.0455379;0.0154166;0.0471375
0.027944;0.0460022;0.0155325;0.0476467
0.028443;0.0464316;0.015934;0.0476467
0.028942;0.0468009;0.0156608;0.0472329
0.029441;0.0474214;0.0164598;0.0469465
0.02994;0.0479515;0.0165136;0.0463736
0.030439;0.0482386;0.0167123;0.0476467
0.030938;0.0478398;0.0168862;0.0474239
0.031437;0.0474513;0.0165343;0.0476149
0.031936;0.0469006;0.0163397;0.0461508
0.032435;0.0463841;0.0164267;0.0476467
0.032934;0.0459927;0.0162073;0.0476467
0.033433;0.0455289;0.0156318;0.0474239
0.033932;0.0450727;0.0157602;0.0476467
0.034431;0.0445042;0.0155325;0.0469783
0.03493;0.0440494;0.0149074;0.0475512
0.035429;0.0436102;0.0147459;0.0470101
0.035928;0.0430674;0.0142823;0.046469
0.036427;0.0425731;0.0141498;0.0447821
0.036926;0.0421092;0.0137731;0.0472648
0.037425;0.0416463;0.0133757;0.0462781
0.037924;0.0410955;0.0127505;0.0466919
0.038423;0.040705;0.0127423;0.0476467
0.038922;0.0401907;0.0124897;0.04666
0.039421;0.0396892;0.0123655;0.0472329
0.03992;0.03928;0.0123241;0.0473284
0.040419;0.0387419;0.0121627;0.0476467
0.040918;0.0382525;0.0116286;0.0464054
0.041417;0.037779;0.011699;0.0471375
0.041916;0.037235;0.0111608;0.0465645
0.042415;0.0367464;0.0110325;0.0476467
0.042914;0.0363792;0.0104281;0.0476467
0.043413;0.0358218;0.0103412;0.0472648
0.043912;0.0353549;0.0102211;0.0476467
0.044411;0.0348576;0.00981548;0.0465009
0.04491;0.0344294;0.0101756;0.0476467
0.045409;0.0337937;0.0101508;0.0476467
0.045908;0.0333348;0.0096706;0.0465964
0.046407;0.0329163;0.00883846;0.0475831
0.046906;0.0323984;0.00911583;0.0476467
0.047405;0.0318416;0.008292;0.0471375
0.047904;0.0313364;0.00833754;0.0475194
0.048403;0.030833;0.00813882;0.0465009
0.048902;0.0303051;0.0081678;0.047233
0.049401;0.0297862;0.00774968;0.0467237
0.0499;0.0294061;0.00779935;0.0476467
0.050399;0.0288574;0.00656569;0.0457052
0.050898;0.0283549;0.00714941;0.0472966
0.051397;0.0279652;0.00707903;0.0471056
0.051896;0.0274108;0.00666505;0.0469147
0.052395;0.0269043;0.00643322;0.0476149
0.052894;0.0264464;0.00615586;0.0474558
0.053393;0.025944;0.0061807;0.0474558
0.053892;0.0254497;0.00606065;0.0476467
0.054391;0.0249147;0.00569222;0.0476467
0.05489;0.0244203;0.00497605;0.047042
0.055389;0.0239526;0.00424329;0.0475831
0.055888;0.0235568;0.00413151;0.045737
0.056387;0.0230742;0.00404458;0.0468192
0.056886;0.0225917;0.0037341;0.0472648
0.057385;0.0222028;0.00327871;0.0458643
0.057884;0.0216571;0.00305104;0.0476467
0.058383;0.0211142;0.00258324;0.0458007
0.058882;0.0205705;0.00273641;0.0469465
0.059381;0.0201215;0.00279023;0.047042
0.05988;0.0195778;0.00239695;0.0450368
0.060379;0.0191455;0.00227689;0.0473284
0.060878;0.0185869;0.00152758;0.0466282
0.061377;0.0181635;0.00169317;0.0476149
0.061876;0.0177243;0.00133301;0.0458325
0.062375;0.0172655;0.00100597;0.0473603
0.062874;0.016927;0.000563013;0.0460235
0.063373;0.016553;0.000165592;0.0470101
0.063872;0.0159687;0.00042226;0.047233
0.064371;0.015486;4.96776e-05;0.0476467
0.06487;0.0149908;0.000111775;0.0469783
0.065369;0.0144351;7.45164e-05;0.047042
0.065868;0.0139466;0.000153173;0.0476467
0.066367;0.0135429;-0.000107635;0.0456415
0.066866;0.0130347;-0.000306345;0.0470101
0.067365;0.0125146;-0.000459518;0.0476467
0.067864;0.0120745;-0.000856938;0.0474558
0.068363;0.0116788;-0.000591992;0.0473921
0.068862;0.0111182;-0.00168489;0.0476467
0.069361;0.0106089;-0.00211957;0.0476467
0.06986;0.0101569;-0.00206576;0.0476467
0.070359;0.00960337;-0.00209887;0.0472011
0.070858;0.00914342;-0.00240936;0.0461189
0.071357;0.00862534;-0.00267845;0.0463735
0.071856;0.00809832;-0.00291855;0.0476467
0.072355;0.00756349;-0.00405699;0.0472648
0.072854;0.00714305;-0.00412737;0.0464691
0.073353;0.00665353;-0.00411909;0.0473284
0.073852;0.00612362;-0.00432609;0.0476467
0.074351;0.00565285;-0.00479805;0.047233
0.07485;0.00519689;-0.00498845;0.0473603
0.075349;0.00466695;-0.00529893;0.0476149
0.075848;0.00417843;-0.00550595;0.0474876
0.076347;0.00370376;-0.00598199;0.0476467
0.076846;0.00319554;-0.00619726;0.0476467
0.077345;0.00265569;-0.00606064;0.0476467
0.077844;0.0021583;-0.00620967;0.0476467
0.078343;0.00160369;-0.00620139;0.0476467
0.078842;0.00116846;-0.00653257;0.047233
0.079341;0.000724367;-0.00644563;0.0476467
0.07984;0.00026547;-0.00777038;0.0475831
0.080339;-0.000213166;-0.00761306;0.0474558
0.080838;-0.000792462;-0.00826716;0.047042
0.081337;-0.00116945;-0.00803946;0.0476149
0.081836;-0.00162539;-0.00815952;0.0476467
0.082335;-0.00217015;-0.00851142;0.0471056
0.082834;-0.00261129;-0.00863148;0.0471056
0.083333;-0.00307216;-0.00927313;0.0471056
0.083832;-0.00355474;-0.0096043;0.0476467
0.084331;-0.00406395;-0.0103039;0.0465009
0.08483;-0.00452186;-0.0103329;0.0473284
0.085329;-0.00515843;-0.0103453;0.0468192
0.085828;-0.00562128;-0.0107676;0.0458006
0.086327;-0.00607819;-0.0106724;0.0463099
0.086826;-0.00664862;-0.0106558;0.0467874
0.087325;-0.00722302;-0.0115997;0.04666
0.087824;-0.00763744;-0.0120592;0.0474558
0.088323;-0.00809637;-0.012262;0.0472329
0.088822;-0.00863024;-0.012349;0.0468192
0.089321;-0.00905462;-0.0125146;0.0476149
0.08982;-0.00946218;-0.0130279;0.0418857
0.090319;-0.0100237;-0.0130279;0.0449413
0.090818;-0.0105468;-0.0135702;0.0414083
0.091317;-0.0110363;-0.0134916;0.0436045
0.091816;-0.0116265;-0.0136654;0.0354563
0.092315;-0.0121109;-0.0140049;0.0370478
0.092814;-0.0126399;-0.0141995;0.043127
0.093313;-0.0131265;-0.014452;0.0440501
0.093812;-0.0136959;-0.0145804;0.0456733
0.094311;-0.0140838;-0.0150192;0.0434453
0.09481;-0.0145319;-0.0148784;0.0452914
0.095309;-0.0149275;-0.0148039;0.0470101
0.095808;-0.0154377;-0.0153131;0.0472966
0.096307;-0.0158443;-0.0159051;0.0464054
0.096806;-0.0163911;-0.0161617;0.0463736
0.097305;-0.0169408;-0.0165178;0.0468192
0.097804;-0.0173149;-0.0165219;0.0476467
0.098303;-0.0177706;-0.0165343;0.0466282
0.098802;-0.0183027;-0.0165467;0.0454187
0.099301;-0.0187764;-0.0167786;0.04666
0.0998;-0.0191919;-0.0170146;0.0454506
0.100299;-0.0196557;-0.0170063;0.0460553
0.100798;-0.020169;-0.0175569;0.0460235
0.101297;-0.0206158;-0.0182151;0.0458643
0.101796;-0.0210532;-0.018389;0.044432
0.102295;-0.0215761;-0.0184925;0.0465645
0.102794;-0.0220419;-0.0185918;0.0440182
0.103293;-0.0225542;-0.0186456;0.0421404
0.103792;-0.0230346;-0.0187077;0.0470102
0.104291;-0.0235164;-0.0191879;0.0472011
0.10479;-0.0239358;-0.0194198;0.0476149
0.105289;-0.0244083;-0.0194322;0.0476467
0.105788;-0.0249375;-0.0201897;0.0476467
0.106287;-0.0254526;-0.0199;0.0474239
0.106786;-0.0259797;-0.0205333;0.0467555
0.107285;-0.0265016;-0.0208149;0.0476149
0.107784;-0.0269844;-0.0211957;0.0457688
0.108283;-0.0274077;-0.0217464;0.0450368
0.108782;-0.0278891;-0.0223343;0.0464054
0.109281;-0.028367;-0.0226613;0.0454823
0.10978;-0.0288375;-0.0225412;0.0458325
0.110279;-0.0293944;-0.0227234;0.046851
0.110778;-0.0299262;-0.022831;0.0455141
0.111277;-0.0303366;-0.0227979;0.0476467
0.111776;-0.03085;-0.0237086;0.0461826
0.112275;-0.0313965;-0.0237749;0.0472648
0.112774;-0.0319001;-0.0237003;0.0473284
0.113273;-0.0323351;-0.0240646;0.0465009
0.113772;-0.032856;-0.0246441;0.0469147
0.114271;-0.0333023;-0.0246607;0.0468192
0.11477;-0.03377;-0.024789;0.0443365
0.115269;-0.0342329;-0.024818;0.046119
0.115768;-0.0347934;-0.0252735;0.046469
0.116267;-0.035195;-0.0252776;0.046851
0.116766;-0.0356677;-0.0261553;0.0471375
0.117265;-0.0362687;-0.0265859;0.0466919
0.117764;-0.0367338;-0.0267474;0.0472966
0.118263;-0.0371956;-0.0268384;0.0471056
0.118762;-0.0377591;-0.0269378;0.0470738
0.119261;-0.0382851;-0.0272234;0.0476467
0.11976;-0.038664;-0.0270123;0.0476467
0.120259;-0.0392008;-0.0270992;0.0462781
0.120758;-0.0396637;-0.0273765;0.0465009
0.121257;-0.0401158;-0.0274221;0.0474558
0.121756;-0.0405341;-0.0286143;0.0466919
0.122255;-0.0410787;-0.0289123;0.0468192
0.122754;-0.0415032;-0.0289165;0.0476149
0.123253;-0.0420985;-0.0289206;0.0465327
0.123752;-0.0426035;-0.0288999;0.0443684
0.124251;-0.0430971;-0.0289289;0.0463417
0.12475;-0.0436468;-0.0294091;0.0424905
0.125249;-0.04414;-0.0300674;0.0440819
0.125748;-0.0446306;-0.0305518;0.043509
0.126247;-0.0450739;-0.0309327;0.0445593
0.126746;-0.0454639;-0.0309823;0.0464691
0.127245;-0.0460279;-0.0309865;0.0451959
0.127744;-0.0464444;-0.0311148;0.0452595
0.128243;-0.0469106;-0.0314004;0.0438272
0.128742;-0.0474046;-0.0316447;0.045546
0.129241;-0.0479603;-0.0317771;0.0460871
0.12974;-0.0484273;-0.0324312;0.0439228
0.130239;-0.0490201;-0.0329527;0.0441137
0.130738;-0.0488045;-0.0324146;0.0446867
0.131237;-0.0482938;-0.032071;0.0471056
0.131736;-0.0478122;-0.0316985;0.0462462
0.132235;-0.0473181;-0.0312804;0.0452277
0.132734;-0.046868;-0.0310444;0.0441774
0.133233;-0.0463249;-0.0309865;0.0437636
0.133732;-0.0458961;-0.0309658;0.0443047
0.134231;-0.0453947;-0.0309202;0.0393394
0.13473;-0.0448871;-0.0304855;0.0415037
0.135229;-0.0443878;-0.0303655;0.0407717
0.135728;-0.0439872;-0.030146;0.0400715
0.136227;-0.0434829;-0.0291441;0.0445593
0.136726;-0.0429845;-0.0291359;0.0437636
0.137225;-0.0424656;-0.0289992;0.0411855
0.137724;-0.0419504;-0.0290448;0.045737
0.138223;-0.0414122;-0.0290738;0.0401033
0.138722;-0.0409692;-0.0289082;0.0410263
0.139221;-0.0404979;-0.0286764;0.0422994
0.13972;-0.0399547;-0.0282335;0.0423631
0.140219;-0.0394082;-0.02736;0.0414719
0.140718;-0.0389521;-0.0273642;0.0404216
0.141217;-0.038437;-0.0269792;0.0435408
0.141716;-0.0379556;-0.0269916;0.0434135
0.142215;-0.0374867;-0.0267556;0.0471375
0.142714;-0.0369933;-0.0265776;0.0450685
0.143213;-0.0365006;-0.026354;0.0448776
0.143712;-0.0360833;-0.0260891;0.0459916
0.144211;-0.0355236;-0.0256916;0.0466282
0.14471;-0.0350243;-0.0251948;0.0469465
0.145209;-0.0345517;-0.025203;0.0467555
0.145708;-0.0340926;-0.0250623;0.046469
0.146207;-0.0335441;-0.024789;0.0473603
0.146706;-0.0330485;-0.0247393;0.0464054
0.147205;-0.0325907;-0.0247269;0.047042
0.147704;-0.0320915;-0.0245034;0.0463099
0.148203;-0.0315297;-0.0238494;0.0459598
0.148702;-0.031071;-0.0234437;0.0428088
0.149201;-0.0306395;-0.0228269;0.04666
0.1497;-0.0301502;-0.0228145;0.0463417
0.150199;-0.0297092;-0.0227234;0.0469783
0.150698;-0.0292362;-0.0227151;0.0448776
0.151197;-0.0286689;-0.0224129;0.0459916
0.151696;-0.0282286;-0.0223881;0.0460234
0.152195;-0.0277955;-0.022417;0.0420448
0.152694;-0.027244;-0.0221024;0.0450049
0.153193;-0.0267325;-0.0219533;0.0429679
0.153692;-0.0262599;-0.0208107;0.0440501
0.154191;-0.0257644;-0.0205333;0.0432226
0.15469;-0.025207;-0.0211213;0.0436681
0.155189;-0.0246798;-0.0207279;0.0447503
0.155688;-0.0242891;-0.0202477;0.0470102
0.156187;-0.0237671;-0.0204671;0.0428724
0.156686;-0.0233771;-0.0195109;0.0446866
0.157185;-0.0229686;-0.0190886;0.0465327
0.157684;-0.0224593;-0.0190265;0.0451004
0.158183;-0.0219492;-0.0186788;0.0476467
0.158682;-0.0215121;-0.0185918;0.0470101
0.159181;-0.0209997;-0.0184345;0.0476467
0.15968;-0.0205192;-0.0180578;0.0470738
0.160179;-0.0199952;-0.017619;0.0462144
0.160678;-0.0194465;-0.0167537;0.0464054
0.161177;-0.0189452;-0.016526;0.0460234
0.161676;-0.0185207;-0.016526;0.0465964
0.162175;-0.0180125;-0.0164681;0.0465009
0.162674;-0.0176335;-0.0165012;0.0454824
0.163173;-0.0172162;-0.0164184;0.0463736
0.163672;-0.0166754;-0.0164432;0.0471375
0.164171;-0.0162401;-0.0160127;0.0452914
0.16467;-0.0157101;-0.0158844;0.0465646
0.165169;-0.0152956;-0.0155449;0.0453232
0.165668;-0.0148151;-0.0155615;0.0462781
0.166167;-0.0143098;-0.0149364;0.0448139
0.166666;-0.0138331;-0.0153296;0.0387984
0.167165;-0.0133821;-0.0146797;0.0460235
0.167664;-0.0128738;-0.0144355;0.0431271
0.168163;-0.0123567;-0.0140629;0.0476467
0.168662;-0.0119117;-0.0140132;0.0442092
0.169161;-0.0113867;-0.0136406;0.0469783
0.16966;-0.010833;-0.0125767;0.047042
0.170159;-0.010375;-0.0126926;0.0441455
0.170658;-0.00986981;-0.0123531;0.0471375
0.171157;-0.00938129;-0.0123614;0.0458007
0.171656;-0.0089253;-0.0123034;0.0467237
0.172155;-0.00851087;-0.0120799;0.045355
0.172654;-0.00799764;-0.0122082;0.045737
0.173153;-0.00743519;-0.0117653;0.045355
0.173652;-0.00689632;-0.0107013;0.0476467
0.174151;-0.00633183;-0.0105813;0.0475831
0.17465;-0.00587984;-0.0106351;0.0458007
0.175149;-0.00541994;-0.010275;0.0470738
0.175648;-0.0049571;-0.0101798;0.0469465
0.176147;-0.00443008;-0.00992721;0.0472966
0.176646;-0.00392974;-0.00990237;0.0475831
0.177145;-0.00348073;-0.00879293;0.0476467
0.177644;-0.00297249;-0.00861492;0.0473284
0.178143;-0.00247115;-0.00843276;0.0473921
0.178642;-0.0019925;-0.0083748;0.0474876
0.179141;-0.00146749;-0.00829614;0.0476467
0.17964;-0.000958257;-0.00818022;0.0474876
0.180139;-0.000460871;-0.0077828;0.0474558
0.180638;-4.44096e-05;-0.00734398;0.0472648
0.181137;0.0005339;-0.00687618;0.0471693
0.181636;0.000909899;-0.00700865;0.0475831
0.182135;0.00135499;-0.00686376;0.0465964
0.182634;0.00175269;-0.00637112;0.0474876
0.183133;0.00237839;-0.0061393;0.0476467
0.183632;0.00281854;-0.00608134;0.0476467
0.184131;0.00330112;-0.00587437;0.0476467
0.18463;0.00394454;-0.00560943;0.0475831
0.185129;0.0043314;-0.00592404;0.0466282
0.185628;0.00484953;-0.00529894;0.0472966
0.186127;0.00536765;-0.00548109;0.0454187
0.186626;0.00586899;-0.00428469;0.047042
0.187125;0.00628839;-0.00440889;0.0449095
0.187624;0.00680061;-0.00414393;0.0466919
0.188123;0.00727236;-0.00404457;0.0470101
0.188622;0.00774994;-0.00372167;0.0467873
0.189121;0.00815559;-0.00329115;0.0465327
0.18962;0.00867268;-0.00336565;0.045737
0.190119;0.00915233;-0.00289787;0.0462781
0.190618;0.00971879;-0.00221065;0.0465009
0.191117;0.0102872;-0.00213613;0.0466282
0.191616;0.0107155;-0.00201194;0.0472648
0.192115;0.0112199;-0.00203264;0.045164
0.192614;0.0117508;-0.00206576;0.045737
0.193113;0.0123241;-0.00168903;0.0474239
0.193612;0.012784;-0.000699626;0.0474876
0.194111;0.0131886;-0.000339464;0.0471056
0.19461;0.01369;-0.000190431;0.0462463
0.195109;0.0140927;-0.000306345;0.0460234
0.195608;0.0145329;-0.000194571;0.0476467
0.196107;0.0150528;8.2796e-06;0.0476467
0.196606;0.0155374;-2.0699e-05;0.0473603
0.197105;0.0160397;0.000244248;0.0474876
0.197604;0.016552;0.000376722;0.0463736
0.198103;0.0170257;0.00110532;0.0454187
0.198602;0.0174855;0.00105151;0.0463418
0.199101;0.0179355;0.00141581;0.04666
0.1996;0.0183649;0.00128747;0.0465646
0.200099;0.0188839;0.0020078;0.0475194
0.200598;0.019333;0.00215269;0.0461826
0.201097;0.0197475;0.0026205;0.0467555
0.201596;0.0202706;0.00303447;0.0473284
0.202095;0.0207254;0.00315453;0.0463099
0.202594;0.021209;0.00374237;0.044432
0.203093;0.0217409;0.00382931;0.0448776
0.203592;0.0222344;0.00396592;0.047042
0.204091;0.0226588;0.00395764;0.0460235
0.20459;0.0231966;0.00400318;0.0467237
0.205089;0.0236516;0.00422673;0.0462463
0.205588;0.0241706;0.00431781;0.045546
0.206087;0.0246581;0.00479388;0.0433817
0.206586;0.0252168;0.00568808;0.0460235
0.207085;0.0256787;0.00478146;0.0443047
0.207584;0.0261563;0.00569222;0.0437
0.208083;0.0265845;0.00607306;0.0442092
0.208582;0.0270466;0.00635457;0.0436999
0.209081;0.0275251;0.00643737;0.0466919
0.20958;0.0280145;0.00649533;0.0453869
0.210079;0.0285268;0.00692585;0.0472648
0.210578;0.0290112;0.00696311;0.0443365
0.211077;0.0295098;0.00755924;0.0422994
0.211576;0.0300791;0.0082092;0.0451959
0.212075;0.0305932;0.00816367;0.0449731
0.212574;0.0311391;0.00826302;0.0472011
0.213073;0.0316285;0.00824646;0.0464054
0.213572;0.0321013;0.00847002;0.0436682
0.214071;0.0325265;0.00844932;0.0458962
0.21457;0.0330031;0.00840378;0.0437955
0.215069;0.0334228;0.00832511;0.0426496
0.215568;0.0339505;0.00861489;0.0430316
0.216067;0.0344995;0.00970367;0.0446866
0.216566;0.0349937;0.010217;0.0455779
0.217065;0.0354387;0.0102874;0.0433498
0.217564;0.0359274;0.0103205;0.0449731
0.218063;0.0364523;0.0103826;0.0456097
0.218562;0.0368522;0.011136;0.0460871
0.219061;0.0374048;0.0107676;0.0448139
0.21956;0.0379151;0.011107;0.0462463
0.220059;0.038369;0.0106806;0.0456415
0.220558;0.0388071;0.011463;0.0454187
0.221057;0.0393124;0.0113844;0.0435727
0.221556;0.0398028;0.0118356;0.0469465
0.222055;0.0402323;0.0119184;0.0443046
0.222554;0.0407323;0.0123117;0.0457688
0.223053;0.0412504;0.0123904;0.046469
0.223552;0.0417096;0.0123945;0.0461189
0.224051;0.0421745;0.0125808;0.0442729
0.22455;0.0427506;0.012763;0.0460235
0.225049;0.0432924;0.013504;0.0468192
0.225548;0.0437435;0.0142574;0.0465327
0.226047;0.0441943;0.0144355;0.0468828
0.226546;0.044747;0.0144686;0.0462781
0.227045;0.0451509;0.0145638;0.0455142
0.227544;0.0455724;0.0147583;0.0448458
0.228043;0.0460388;0.0155615;0.0467873
0.228542;0.046477;0.0159258;0.0466919
0.229041;0.0469855;0.01605;0.0458643
0.22954;0.0474797;0.0165219;0.0468192
0.230039;0.0479574;0.0163398;0.0469147
0.230538;0.0481763;0.0165302;0.0476467
0.231037;0.0477098;0.0164225;0.0475831
0.231536;0.0472993;0.0164432;0.0476467
0.232035;0.0467801;0.0163604;0.0476467
0.232534;0.0462943;0.0161245;0.0476467
0.233033;0.045827;0.0158388;0.0476467
0.233532;0.0453957;0.0153048;0.0476467
0.234031;0.0448911;0.0152386;0.0473284
0.23453;0.0444104;0.015044;0.0471056
0.235029;0.0439517;0.0151724;0.0476467
0.235528;0.0434326;0.0147791;0.0476467
0.236027;0.0429747;0.0144603;0.0476467
0.236526;0.0425139;0.014038;0.0475512
0.237025;0.0419731;0.0140215;0.0475831
0.237524;0.0415149;0.0127961;0.0475831
0.238023;0.0410393;0.0127919;0.047042
0.238522;0.0405166;0.0127588;0.046851
0.239021;0.040007;0.0123614;0.047042
0.23952;0.039632;0.0123159;0.0467555
0.240019;0.0390943;0.0120095;0.0429043
0.240518;0.0386127;0.0117735;0.0453232
0.241017;0.0381391;0.0118605;0.0472966
0.241516;0.0376545;0.0114424;0.0472648
0.242015;0.0371502;0.0106517;0.0471693
0.242514;0.0366813;0.0103329;0.046851
0.243013;0.0361819;0.0103329;0.0468192
0.243512;0.0356549;0.0102501;0.0475194
0.244011;0.0352079;0.0101673;0.0474876
0.24451;0.0347648;0.0101673;0.0465327
0.245009;0.0342931;0.00982788;0.0463417
0.245508;0.0337286;0.00966642;0.0465964
0.246007;0.0332459;0.00881778;0.0470738
0.246506;0.0328502;0.0084162;0.0476467
0.247005;0.0322188;0.0082506;0.0467873
0.247504;0.0316915;0.00819264;0.0464054
0.248003;0.0312792;0.0081885;0.0453868
0.248502;0.0307609;0.00784075;0.0469783
