t;vds;corrente;vg
0.000499;-0.038816;-0.0264162;0.688074
0.000998;-0.0392452;-0.0268923;0.699326
0.001497;-0.0397771;-0.0269668;0.698816
0.001996;-0.0402422;-0.0273145;0.698816
0.002495;-0.0406603;-0.0276249;0.698816
0.002994;-0.0411754;-0.0280762;0.699167
0.003493;-0.0416365;-0.0278857;0.698816
0.003992;-0.042138;-0.0287053;0.698816
0.004491;-0.0426864;-0.0288047;0.698816
0.00499;-0.0432826;-0.0289247;0.698816
0.005489;-0.0436981;-0.0292808;0.698816
0.005988;-0.0442387;-0.0296741;0.698944
0.006487;-0.044746;-0.0300426;0.698816
0.006986;-0.045145;-0.0303944;0.698816
0.007485;-0.0456474;-0.0307464;0.699326
0.007984;-0.0461907;-0.0306429;0.698816
0.008483;-0.0466173;-0.0306552;0.699326
0.008982;-0.0470033;-0.0309244;0.699421
0.009481;-0.0475487;-0.0309865;0.698816
0.00998;-0.048061;-0.0309865;0.698848
0.010479;-0.048533;-0.0309948;0.699516
0.010978;-0.0488419;-0.031624;0.699675
0.011477;-0.0485842;-0.031239;0.698976
0.011976;-0.0480214;-0.0309989;0.699135
0.012475;-0.0475372;-0.0309865;0.698816
0.012974;-0.0470979;-0.0309865;0.699167
0.013473;-0.046546;-0.030825;0.698816
0.013972;-0.0461485;-0.0307381;0.698975
0.014471;-0.0456265;-0.0299017;0.698816
0.01497;-0.0451735;-0.0301419;0.698944
0.015469;-0.0446462;-0.0302992;0.698816
0.015968;-0.04416;-0.0295374;0.698944
0.016467;-0.0437177;-0.0295705;0.698816
0.016966;-0.0432134;-0.0289868;0.698816
0.017465;-0.042728;-0.0289868;0.698816
0.017964;-0.0422227;-0.0287798;0.698816
0.018463;-0.0416383;-0.0288461;0.698816
0.018962;-0.0411625;-0.0288709;0.698816
0.019461;-0.0408025;-0.0284239;0.698816
0.01996;-0.040246;-0.0280554;0.698816
0.020459;-0.0398639;-0.0282252;0.698816
0.020958;-0.0393391;-0.0274345;0.698816
0.021457;-0.0388268;-0.0269916;0.698816
0.021956;-0.0382387;-0.0269088;0.698816
0.022455;-0.0377364;-0.0271158;0.698816
0.022954;-0.0373199;-0.027004;0.698816
0.023453;-0.0368274;-0.0264079;0.698816
0.023952;-0.0362352;-0.0256005;0.698816
0.024451;-0.0358573;-0.0250457;0.698816
0.02495;-0.0353095;-0.0249836;0.698816
0.025449;-0.034825;-0.0249588;0.698816
0.025948;-0.0344274;-0.0249381;0.698816
0.026447;-0.0339801;-0.0247559;0.698816
0.026946;-0.0333891;-0.0246731;0.698816
0.027445;-0.032863;-0.0240605;0.698816
0.027944;-0.0324635;-0.0239694;0.698816
0.028443;-0.0319256;-0.0237873;0.698816
0.028942;-0.031297;-0.0229263;0.698816
0.029441;-0.0308884;-0.0228269;0.698816
0.02994;-0.0304462;-0.0228559;0.698816
0.030439;-0.0299716;-0.0228228;0.698816
0.030938;-0.029496;-0.0228311;0.698816
0.031437;-0.0290675;-0.0226779;0.698816
0.031936;-0.0285337;-0.0227234;0.698816
0.032435;-0.028049;-0.0223839;0.698816
0.032934;-0.0276307;-0.0215145;0.698816
0.033433;-0.0270811;-0.0209887;0.698816
0.033932;-0.0265668;-0.020761;0.698816
0.034431;-0.0260754;-0.0206699;0.698816
0.03493;-0.0255612;-0.0204878;0.698816
0.035429;-0.0249967;-0.0204174;0.698816
0.035928;-0.0245052;-0.0200035;0.698816
0.036427;-0.0241124;-0.0198958;0.698816
0.036926;-0.0236299;-0.0188112;0.69923
0.037425;-0.0231649;-0.0186498;0.699803
0.037924;-0.0226914;-0.0184469;0.698816
0.038423;-0.0222995;-0.0186084;0.698816
0.038922;-0.021741;-0.0185007;0.698816
0.039421;-0.021293;-0.0177308;0.698912
0.03992;-0.0208359;-0.0169028;0.699421
0.040419;-0.0203506;-0.0173871;0.698816
0.040918;-0.0198057;-0.0168904;0.698816
0.041417;-0.0192817;-0.016526;0.699198
0.041916;-0.0188267;-0.016555;0.69888
0.042415;-0.0182878;-0.016526;0.698976
0.042914;-0.0178536;-0.016526;0.699103
0.043413;-0.0174589;-0.0164101;0.699039
0.043912;-0.0169448;-0.0158388;0.699421
0.044411;-0.0164947;-0.0157767;0.699293
0.04491;-0.0160891;-0.0160375;0.699485
0.045409;-0.0155324;-0.0146921;0.699167
0.045908;-0.0151536;-0.0148536;0.698816
0.046407;-0.0146562;-0.0147294;0.698816
0.046906;-0.0141686;-0.0145265;0.698816
0.047405;-0.0137019;-0.0144934;0.698816
0.047904;-0.013156;-0.0145431;0.698816
0.048403;-0.01263;-0.0144355;0.698816
0.048902;-0.012112;-0.014216;0.699039
0.049401;-0.0116294;-0.0131811;0.698816
0.0499;-0.011208;-0.0127878;0.698816
0.050399;-0.0106444;-0.012647;0.698816
0.050898;-0.0101885;-0.0124732;0.698816
0.051397;-0.00966457;-0.0122952;0.698816
0.051896;-0.00918093;-0.0122165;0.698816
0.052395;-0.00868454;-0.0115459;0.699039
0.052894;-0.00826217;-0.011728;0.699103
0.053393;-0.00779536;-0.0117156;0.699198
0.053892;-0.00723089;-0.0109249;0.70028
0.054391;-0.00676111;-0.0105647;0.698976
0.05489;-0.00620554;-0.0106351;0.698912
0.055389;-0.00567456;-0.0103288;0.698816
0.055888;-0.00514953;-0.0102543;0.698816
0.056387;-0.00473802;-0.0100845;0.699166
0.056886;-0.00424554;-0.00991481;0.699262
0.057385;-0.00365935;-0.00963741;0.69888
0.057884;-0.00334159;-0.00965401;0.69888
0.058383;-0.00275635;-0.00842034;0.698816
0.058882;-0.00228167;-0.00873084;0.698912
0.059381;-0.00183362;-0.00813468;0.69958
0.05988;-0.0012938;-0.00810156;0.699676
0.060379;-0.000764829;-0.00768758;0.699389
0.060878;-0.000300997;-0.00709143;0.698816
0.061377;0.000150006;-0.0067851;0.698816
0.061876;0.00070759;-0.00630075;0.698912
0.062375;0.00112109;-0.0064001;0.698848
0.062874;0.00152572;-0.00618898;0.698848
0.063373;0.00200731;-0.00615172;0.698816
0.063872;0.00261722;-0.00607721;0.698848
0.064371;0.00299519;-0.00606893;0.698816
0.06487;0.00360013;-0.00507952;0.698816
0.065369;0.00413303;-0.00559699;0.698816
0.065868;0.00450608;-0.00540243;0.698816
0.066367;0.00510218;-0.00433851;0.698816
0.066866;0.00553739;-0.00429297;0.698816
0.067365;0.00607916;-0.00413151;0.698816
0.067864;0.00651736;-0.00387484;0.698816
0.068363;0.00706906;-0.00409839;0.698816
0.068862;0.00762461;-0.00396592;0.698816
0.069361;0.0080253;-0.00360991;0.698816
0.06986;0.0084112;-0.00344431;0.698816
0.070359;0.00896184;-0.00245905;0.698816
0.070858;0.00940692;-0.00222721;0.698816
0.071357;0.00988854;-0.00211957;0.698816
0.071856;0.0104372;-0.00202436;0.698816
0.072355;0.0109337;-0.00189602;0.698816
0.072854;0.0114686;-0.00144893;0.698816
0.073353;0.0119905;-0.0011343;0.698816
0.073852;0.0125245;-0.000451239;0.698816
0.074351;0.0130061;-0.000157312;0.698816
0.07485;0.0134739;-4.1398e-05;0.698816
0.075349;0.0140059;-0.000103495;0.69888
0.075848;0.0144026;0;0.699358
0.076347;0.014751;0.00019871;0.699421
0.076846;0.0152749;7.03766e-05;0.698816
0.077345;0.0157288;0.000260807;0.698944
0.077844;0.0162431;0.000513336;0.699007
0.078343;0.0167819;0.001155;0.698816
0.078842;0.0172596;0.00110946;0.698816
0.079341;0.0176878;0.00197882;0.698816
0.07984;0.0181378;0.00202022;0.698816
0.080339;0.0186106;0.00192914;0.698816
0.080838;0.0191603;0.00210716;0.698848
0.081337;0.0195225;0.00206162;0.698848
0.081836;0.0199904;0.00245076;0.698816
0.082335;0.0205388;0.00289372;0.69923
0.082834;0.0209644;0.00360989;0.698816
0.083333;0.0214686;0.00380447;0.698816
0.083832;0.0220172;0.00402801;0.698816
0.084331;0.0224526;0.00432609;0.699071
0.08483;0.0228314;0.00455379;0.698848
0.085329;0.0233624;0.00439647;0.698816
0.085828;0.0238864;0.00510023;0.698976
0.086327;0.024361;0.00570463;0.698816
0.086826;0.0248408;0.00531966;0.699039
0.087325;0.0253796;0.00566737;0.699134
0.087824;0.0258297;0.00597785;0.698816
0.088323;0.0263348;0.00608962;0.698816
0.088822;0.0267959;0.00611032;0.698912
0.089321;0.0271936;0.00623865;0.698976
0.08982;0.0277007;0.00666919;0.699899
0.090319;0.0281873;0.00642908;0.699326
0.090818;0.0287073;0.00674371;0.698816
0.091317;0.029194;0.00692998;0.698816
0.091816;0.0297486;0.00780764;0.698816
0.092315;0.0302833;0.00782007;0.698816
0.092814;0.0307374;0.00800634;0.698816
0.093313;0.0312268;0.00823818;0.698816
0.093812;0.0318448;0.0083541;0.698816
0.094311;0.032271;0.0082506;0.698816
0.09481;0.0327455;0.0082299;0.698816
0.095309;0.0331986;0.00825474;0.698816
0.095808;0.0336102;0.00827544;0.698816
0.096307;0.0340976;0.00849486;0.698816
0.096806;0.0346237;0.00942217;0.698816
0.097305;0.0351516;0.00962914;0.698816
0.097804;0.0356796;0.010395;0.698976
0.098303;0.0361405;0.0101714;0.698816
0.098802;0.0367506;0.0106599;0.699167
0.099301;0.0371522;0.0107303;0.698816
0.0998;0.0376584;0.010958;0.698816
0.100299;0.0381795;0.0108793;0.699007
0.100798;0.0386966;0.0113844;0.69888
0.101297;0.0390409;0.0114341;0.698816
0.101796;0.0395611;0.01155;0.699421
0.102295;0.0400565;0.0123241;0.698848
0.102794;0.0404099;0.0123614;0.698816
0.103293;0.0409514;0.0128333;0.698816
0.103792;0.0414647;0.0127216;0.698816
0.104291;0.0419288;0.0127837;0.699326
0.10479;0.0424684;0.0134419;0.698816
0.105289;0.043029;0.0135785;0.698816
0.105788;0.043556;0.0144272;0.698816
0.106287;0.0439248;0.014423;0.700153
0.106786;0.0444619;0.0144148;0.699294
0.107285;0.0449169;0.0145183;0.701584
0.107784;0.0453553;0.0147873;0.701679
0.108283;0.0457963;0.0148536;0.699453
0.108782;0.0462923;0.0159009;0.698816
0.109281;0.0467032;0.0161535;0.699007
0.10978;0.0471947;0.0168448;0.698816
0.110279;0.0477214;0.0170145;0.699166
0.110778;0.0481923;0.0173747;0.699516
0.111277;0.048047;0.0175445;0.698816
0.111776;0.0477136;0.0180909;0.699389
0.112275;0.0471956;0.0167786;0.698816
0.112774;0.0466804;0.0167455;0.698816
0.113273;0.0462174;0.0164474;0.698816
0.113772;0.0457608;0.0164971;0.699103
0.114271;0.0452624;0.0154207;0.698976
0.11477;0.0447963;0.0149405;0.698816
0.115269;0.0442833;0.0148329;0.699039
0.115768;0.0438214;0.0151268;0.698816
0.116267;0.0433092;0.0145555;0.698816
0.116766;0.0428661;0.0144934;0.698816
0.117265;0.0424152;0.0140132;0.698816
0.117764;0.0418902;0.0137772;0.698816
0.118263;0.0413718;0.0132722;0.698816
0.118762;0.0409918;0.0128002;0.698816
0.119261;0.0404791;0.012527;0.698848
0.11976;0.0399063;0.0122786;0.698816
0.120259;0.03949;0.0122413;0.698816
0.120758;0.0390301;0.0121585;0.698816
0.121257;0.0384696;0.0122041;0.699071
0.121756;0.0379437;0.0115748;0.698816
0.122255;0.0375035;0.0113554;0.698816
0.122754;0.0370634;0.0111277;0.698816
0.123253;0.0365342;0.0108462;0.698816
0.123752;0.0360764;0.0105896;0.698816
0.124251;0.0356342;0.0103288;0.698816
0.12475;0.0350678;0.0100763;0.698816
0.125249;0.0346445;0.0100721;0.698816
0.125748;0.0340966;0.01001;0.698816
0.126247;0.0335787;0.00964573;0.698816
0.126746;0.0331067;0.00919447;0.698816
0.127245;0.0326835;0.00898337;0.698816
0.127744;0.0321567;0.00835824;0.698816
0.128243;0.0316126;0.00826302;0.698848
0.128742;0.0311214;0.00818436;0.698816
0.129241;0.0306119;0.00746816;0.698816
0.12974;0.0300318;0.00648705;0.698816
0.130239;0.029648;0.00702522;0.698816
0.130738;0.0291523;0.00665677;0.699039
0.131237;0.0286343;0.00628833;0.698816
0.131736;0.0281418;0.00630489;0.698944
0.132235;0.0276702;0.00617242;0.698848
0.132734;0.0272351;0.00616414;0.698816
0.133233;0.0266931;0.00619726;0.698816
0.133732;0.0262136;0.00609376;0.698816
0.134231;0.0257763;0.00602339;0.698816
0.13473;0.0251556;0.00551007;0.698976
0.135229;0.0246738;0.00508367;0.698816
0.135728;0.0242506;0.00468626;0.698816
0.136227;0.0237326;0.00443372;0.698816
0.136726;0.0233495;0.00485187;0.698816
0.137225;0.0228138;0.00413979;0.698816
0.137724;0.0224001;0.00431367;0.698816
0.138223;0.0219354;0.00415221;0.698816
0.138722;0.0214548;0.00408597;0.698816
0.139221;0.0208951;0.00407769;0.698816
0.13972;0.0203141;0.0033491;0.698816
0.140219;0.0199034;0.0029641;0.698816
0.140718;0.0194179;0.0024549;0.698816
0.141217;0.0189008;0.00226447;0.698816
0.141716;0.0184753;0.0024135;0.698816
0.142215;0.0180243;0.00224377;0.698912
0.142714;0.0175664;0.00207818;0.698816
0.143213;0.0171737;0.00185462;0.699803
0.143712;0.016702;0.00138683;0.700503
0.144211;0.0162036;0.000902475;0.700853
0.14471;0.0156775;0.000434679;0.700121
0.145209;0.0152335;0.000269087;0.698816
0.145708;0.0147164;0;0.69888
0.146207;0.0142358;-4.1398e-06;0.699135
0.146706;0.0137808;4.1398e-06;0.698848
0.147205;0.0132853;-0.000161452;0.698816
0.147704;0.0127258;-0.000459518;0.699612
0.148203;0.0122827;-0.0008114;0.698816
0.148702;0.0118219;-0.00120468;0.698816
0.149201;0.0112791;-0.00178425;0.698816
0.1497;0.0108073;-0.00197882;0.698816
0.150199;0.010377;-0.00219823;0.69888
0.150698;0.00985107;-0.0025377;0.698816
0.151197;0.00939708;-0.00270329;0.698816
0.151696;0.00885425;-0.00294754;0.698816
0.152195;0.00843982;-0.00358093;0.698816
0.152694;0.00784865;-0.00359747;0.698944
0.153193;0.0073286;-0.00411081;0.698848
0.153692;0.00689436;-0.00413151;0.698816
0.154191;0.00634565;-0.00413151;0.698816
0.15469;0.00589267;-0.0042971;0.699039
0.155189;0.00544758;-0.00435093;0.698816
0.155688;0.00500743;-0.0047732;0.698816
0.156187;0.00443008;-0.00558043;0.69888
0.156686;0.00393073;-0.0060358;0.698816
0.157185;0.00346593;-0.00602339;0.698816
0.157684;0.00290043;-0.0060772;0.698816
0.158183;0.00238628;-0.00619726;0.698816
0.158682;0.00195698;-0.00630489;0.69888
0.159181;0.00147638;-0.00643736;0.699166
0.15968;0.000974046;-0.00688032;0.699071
0.160179;0.000522058;-0.0068058;0.699039
0.160678;9.67143e-05;-0.00695483;0.699325
0.161177;-0.000482582;-0.00738538;0.699294
0.161676;-0.000946414;-0.00817608;0.69888
0.162175;-0.00133229;-0.00825474;0.698816
0.162674;-0.00181388;-0.00810157;0.698816
0.163173;-0.00236358;-0.0084162;0.698816
0.163672;-0.00274156;-0.0082506;0.69888
0.164171;-0.00330309;-0.00852384;0.698816
0.16467;-0.00373632;-0.00826302;0.698848
0.165169;-0.00425047;-0.00929385;0.698816
0.165668;-0.00479525;-0.00986098;0.698816
0.166167;-0.00528869;-0.00936005;0.699994
0.166666;-0.00581076;-0.00976165;0.698976
0.167165;-0.00632293;-0.0102956;0.698944
0.167664;-0.0068766;-0.0104654;0.698816
0.168163;-0.00738683;-0.0103826;0.69888
0.168662;-0.00783777;-0.0106931;0.698816
0.169161;-0.0082385;-0.0112602;0.698816
0.16966;-0.00873583;-0.0112726;0.699007
0.170159;-0.00924214;-0.0122952;0.698816
0.170658;-0.00969609;-0.0122703;0.699198
0.171157;-0.0102211;-0.012556;0.698816
0.171656;-0.010759;-0.0124607;0.699166
0.172155;-0.0112189;-0.0125021;0.698816
0.172654;-0.011814;-0.0132556;0.698976
0.173153;-0.0123734;-0.0138683;0.698816
0.173652;-0.0128827;-0.0138393;0.698816
0.174151;-0.0133071;-0.0139552;0.698816
0.17465;-0.0137749;-0.0141291;0.698816
0.175149;-0.0142377;-0.01451;0.698816
0.175648;-0.0146533;-0.0146176;0.698816
0.176147;-0.0151475;-0.0151392;0.698816
0.176646;-0.0156943;-0.0148618;0.698816
0.177145;-0.0161256;-0.0151061;0.698816
0.177644;-0.0166389;-0.015727;0.698816
0.178143;-0.0170899;-0.0160334;0.698816
0.178642;-0.0175052;-0.016526;0.698816
0.179141;-0.0180184;-0.0165757;0.698816
0.17964;-0.0184902;-0.0166337;0.698816
0.180139;-0.0189856;-0.0173126;0.698816
0.180638;-0.0194307;-0.0173292;0.69888
0.181137;-0.0199055;-0.0173002;0.699039
0.181636;-0.0203682;-0.0178425;0.699135
0.182135;-0.0208242;-0.0180868;0.698816
0.182634;-0.0213699;-0.0185587;0.698816
0.183133;-0.0217478;-0.0183393;0.699007
0.183632;-0.0222719;-0.0185546;0.699389
0.184131;-0.022792;-0.0188857;0.698944
0.18463;-0.0232528;-0.0191921;0.699198
0.185129;-0.0237749;-0.019486;0.699644
0.185628;-0.0242248;-0.0197137;0.699421
0.186127;-0.0248053;-0.0194942;0.699294
0.186626;-0.0252355;-0.0201566;0.699007
0.187125;-0.0256786;-0.0205499;0.699326
0.187624;-0.0262312;-0.0206244;0.698976
0.188123;-0.0265895;-0.0207072;0.698816
0.188622;-0.0270792;-0.0206989;0.699039
0.189121;-0.0275537;-0.0213904;0.699071
0.18962;-0.0281142;-0.0224916;0.699167
0.190119;-0.028588;-0.0227027;0.698976
0.190618;-0.0290409;-0.0227193;0.698816
0.191117;-0.0295611;-0.0226696;0.698816
0.191616;-0.0300663;-0.0228435;0.698816
0.192115;-0.0304846;-0.0228062;0.698816
0.192614;-0.0310809;-0.0229262;0.698816
0.193113;-0.0315298;-0.0231663;0.698816
0.193612;-0.0319859;-0.024197;0.698816
0.194111;-0.0324792;-0.0246648;0.698816
0.19461;-0.0329666;-0.0246276;0.698816
0.195109;-0.0334701;-0.0249505;0.698816
0.195608;-0.0339012;-0.0249298;0.698816
0.196107;-0.0345004;-0.0249422;0.698912
0.196606;-0.0349533;-0.025112;0.698816
0.197105;-0.0353282;-0.025348;0.698816
0.197604;-0.0358642;-0.0258324;0.698848
0.198103;-0.0364592;-0.0262713;0.69888
0.198602;-0.0368808;-0.0263872;0.699103
0.199101;-0.037307;-0.0267432;0.698944
0.1996;-0.0379062;-0.0267266;0.698848
0.200099;-0.0383907;-0.026855;0.698944
0.200598;-0.0387696;-0.0268177;0.699485
0.201097;-0.0393548;-0.0271779;0.698816
0.201596;-0.0397949;-0.028192;0.698816
0.202095;-0.0402264;-0.0287136;0.698816
0.202594;-0.0407471;-0.0288502;0.69888
0.203093;-0.0413086;-0.0289123;0.698816
0.203592;-0.0417689;-0.0289371;0.698848
0.204091;-0.0422662;-0.0289289;0.69888
0.20459;-0.0428938;-0.0292022;0.698816
0.205089;-0.0433695;-0.0293429;0.698816
0.205588;-0.0437888;-0.0291814;0.698848
0.206087;-0.0443305;-0.030229;0.699326
0.206586;-0.0448211;-0.030469;0.698816
0.207085;-0.0452368;-0.0301998;0.698816
0.207584;-0.0457144;-0.0306346;0.698816
0.208083;-0.0461679;-0.0308954;0.698816
0.208582;-0.0466272;-0.0309865;0.698816
0.209081;-0.047102;-0.031032;0.699198
0.20958;-0.0476464;-0.0311065;0.699453
0.210079;-0.0481212;-0.0309948;0.69888
0.210578;-0.0486189;-0.031388;0.698816
0.211077;-0.0489356;-0.0315163;0.698816
0.211576;-0.0484647;-0.0314874;0.698816
0.212075;-0.0479336;-0.0310569;0.698816
0.212574;-0.0473783;-0.0310155;0.698816
0.213073;-0.0469627;-0.030912;0.698816
0.213572;-0.0464295;-0.0309617;0.698816
0.214071;-0.0459543;-0.0308498;0.698816
0.21457;-0.0455318;-0.0308457;0.698944
0.215069;-0.0450865;-0.0309285;0.698816
0.215568;-0.0444687;-0.0306677;0.698816
0.216067;-0.0440791;-0.0301957;0.698816
0.216566;-0.0435697;-0.0299101;0.698816
0.217065;-0.0430437;-0.0292063;0.698816
0.217564;-0.0426404;-0.0289206;0.698816
0.218063;-0.0421142;-0.0289372;0.698816
0.218562;-0.0415722;-0.0287633;0.698816
0.219061;-0.0410195;-0.0286184;0.698816
0.21956;-0.0406231;-0.0285439;0.698816
0.220059;-0.0401334;-0.0277078;0.698816
0.220558;-0.0395955;-0.027447;0.698816
0.221057;-0.0391457;-0.0269916;0.698944
0.221556;-0.0386018;-0.0268674;0.698816
0.222055;-0.038141;-0.0268964;0.69888
0.222554;-0.0376466;-0.026855;0.698816
0.223053;-0.0372015;-0.0264782;0.698816
0.223552;-0.0367405;-0.0263872;0.698816
0.224051;-0.0361948;-0.0257454;0.698816
0.22455;-0.0357062;-0.0255508;0.698848
0.225049;-0.0352148;-0.0258447;0.698816
0.225548;-0.0346297;-0.024789;0.698816
0.226047;-0.0342734;-0.0248511;0.698816
0.226546;-0.0337217;-0.0248387;0.698816
0.227045;-0.0332153;-0.0247725;0.698816
0.227544;-0.0328552;-0.0243047;0.698816
0.228043;-0.0322859;-0.0237086;0.698816
0.228542;-0.0317459;-0.0234023;0.698816
0.229041;-0.0312664;-0.0232409;0.698944
0.22954;-0.0308014;-0.0229966;0.698816
0.230039;-0.0303426;-0.0229594;0.698816
0.230538;-0.0298977;-0.0227276;0.698816
0.231037;-0.0294772;-0.0225081;0.698816
0.231536;-0.0290044;-0.0225992;0.698816
0.232035;-0.0283924;-0.0223301;0.699166
0.232534;-0.027979;-0.0221066;0.698816
0.233033;-0.0274966;-0.0221521;0.698816
0.233532;-0.0269142;-0.0213986;0.698816
0.234031;-0.0264622;-0.0219698;0.698816
0.23453;-0.0259805;-0.0206906;0.698816
0.235029;-0.0254438;-0.020583;0.698816
0.235528;-0.0250382;-0.0206948;0.698816
0.236027;-0.0246206;-0.0205002;0.698816
0.236526;-0.0241805;-0.0199207;0.698816
0.237025;-0.0236457;-0.0201442;0.698816
0.237524;-0.0232123;-0.0193452;0.698816
0.238023;-0.022721;-0.0188775;0.698816
0.238522;-0.0221081;-0.0187823;0.698816
0.239021;-0.0216453;-0.0187533;0.698816
0.23952;-0.0212762;-0.0188733;0.698816
0.240019;-0.0207135;-0.0183351;0.698816
0.240518;-0.0201601;-0.0181613;0.698816
0.241017;-0.0196754;-0.017768;0.698816
0.241516;-0.0192393;-0.0181447;0.698816
0.242015;-0.0187251;-0.0176397;0.698816
0.242514;-0.0183026;-0.0172712;0.698816
0.243013;-0.0179622;-0.016849;0.698816
0.243512;-0.0174303;-0.01682;0.698816
0.244011;-0.0169172;-0.0165178;0.698816
0.24451;-0.0165421;-0.016526;0.698816
0.245009;-0.0160269;-0.0163729;0.698816
0.245508;-0.0154939;-0.0154331;0.698816
0.246007;-0.0150579;-0.0152758;0.698816
0.246506;-0.0145476;-0.0151765;0.698816
0.247005;-0.0140808;-0.0146466;0.698816
0.247504;-0.0136101;-0.0144686;0.698816
0.248003;-0.0131402;-0.0146341;0.698816
0.248502;-0.0125935;-0.0141912;0.698816
0.249001;-0.012109;-0.0133922;0.698816
0.2495;-0.011661;-0.0129203;0.698816
0.249999;-0.0110698;-0.0128209;0.698816
0.250498;-0.0105497;-0.0127919;0.698816
0.250997;-0.0101125;-0.0123945;0.698816
0.251496;-0.00961917;-0.0123697;0.698816
0.251995;-0.00910493;-0.0123117;0.698816
0.252494;-0.00856021;-0.0118067;0.698816
