t;vds;corrente;vg
0.02495;0.0326096;0.196534;0.579918
0.0499;0.0336032;0.197684;0.58356
0.07485;0.034066;0.197381;0.580886
0.0998;0.0347723;0.196671;0.575093
0.12475;0.0355584;0.197149;0.5692
0.1497;0.0365041;0.196918;0.565488
0.17465;0.037362;0.198426;0.55912
0.1996;0.0381162;0.19782;0.554732
0.22455;0.0389063;0.197421;0.549847
0.2495;0.0399996;0.196902;0.543143
0.27445;0.0410729;0.198682;0.538483
0.2994;0.0422541;0.198793;0.534433
0.32435;0.0431002;0.198019;0.527201
0.3493;0.0445966;0.198378;0.522188
0.37425;0.0453627;0.198809;0.518427
0.3992;0.0464521;0.198985;0.511979
0.42415;0.047713;0.198378;0.508487
0.4491;0.0490019;0.19857;0.503204
0.47405;0.0500116;0.198211;0.498758
0.499;0.0514324;0.197955;0.494371
0.52395;0.0525578;0.198849;0.487245
0.5489;0.0538068;0.198387;0.482751
0.57385;0.0545729;0.198522;0.478973
0.5988;0.0556822;0.198801;0.47332
0.62375;0.0568075;0.198674;0.469768
0.6487;0.0578769;0.198363;0.463207
0.67365;0.0588745;0.198897;0.456304
0.6986;0.0596208;0.198378;0.452001
0.72355;0.0604149;0.199201;0.447296
0.7485;0.0604947;0.199224;0.443019
0.77345;0.0610613;0.199033;0.438442
0.7984;0.0615003;0.198945;0.431385
0.82335;0.0615242;0.199209;0.427253
0.8483;0.0612968;0.199041;0.423331
0.87325;0.061604;0.198554;0.418724
0.8982;0.0612289;0.199121;0.414738
0.92315;0.0607581;0.198889;0.407949
0.9481;0.0607381;0.198091;0.403133
0.97305;0.0600957;0.197221;0.399083
0.998;0.0598124;0.198482;0.392486
1.02295;0.0594532;0.197341;0.390198
1.0479;0.0579967;0.19794;0.383557
1.07285;0.0571148;0.197676;0.378273
1.0978;0.0568195;0.196607;0.372444
1.12275;0.0560055;0.196559;0.367418
1.1477;0.0546687;0.196998;0.363499
1.17265;0.0538826;0.198873;0.359433
1.1976;0.052889;0.198346;0.353828
1.22255;0.0521108;0.196711;0.349828
1.2475;0.051157;0.19659;0.343458
1.27245;0.0500235;0.197014;0.337406
1.2974;0.0488183;0.198107;0.335469
1.32235;0.0479365;0.198323;0.328572
1.3473;0.0470466;0.19869;0.326667
1.37225;0.0463084;0.198594;0.319639
1.3972;0.0449118;0.198147;0.313574
1.42215;0.0442694;0.196399;0.310981
1.4471;0.0432438;0.197221;0.303745
1.47205;0.0421623;0.196567;0.300753
1.497;0.041492;0.197556;0.295423
1.52195;0.0408575;0.197524;0.288811
1.5469;0.039441;0.197085;0.287099
1.57185;0.0387506;0.197117;0.279832
1.5968;0.0378967;0.196646;0.27527
1.62175;0.0369431;0.196327;0.271428
1.6467;0.0363245;0.196686;0.264929
1.67165;0.0360133;0.198642;0.262848
1.6966;0.0349798;0.198658;0.255693
1.72155;0.0343892;0.198227;0.25286
1.7465;0.0338546;0.198083;0.24761
1.77145;0.0331204;0.196902;0.24364
1.7964;0.032853;0.197612;0.237446
1.82135;0.0319113;0.19762;0.231636
1.8463;0.0318634;0.19703;0.226209
1.87125;0.0310893;0.196646;0.223328
1.8962;0.0307382;0.197237;0.216365
1.92115;0.0298803;0.197109;0.213068
1.9461;0.0294094;0.197261;0.207481
1.97105;0.0289345;0.197157;0.200166
1.996;0.0285474;0.197684;0.196421
2.02095;0.0284836;0.196136;0.191715
2.0459;0.0276536;0.196463;0.186846
2.07085;0.0270191;0.197732;0.183101
2.0958;0.027494;0.196527;0.175882
2.12075;0.0269832;0.197341;0.170552
2.1457;0.0263407;0.196694;0.167735
2.17065;0.0256265;0.19837;0.163109
2.1956;0.0256184;0.197812;0.159395
2.22055;0.0252792;0.197022;0.152993
2.2455;0.024912;0.197612;0.148911
2.27045;0.0248482;0.197876;0.143933
2.2954;0.0243813;0.197804;0.138299
2.32035;0.0243055;0.197077;0.134729
2.3453;0.0241858;0.19869;0.128103
2.37025;0.0236191;0.19865;0.122933
2.3952;0.023651;0.19837;0.119187
2.42015;0.0233238;0.198235;0.111936
2.4451;0.022845;0.197333;0.109007
2.47005;0.0230206;0.195768;0.103837
2.495;0.0222943;0.195984;0.0990186
2.51995;0.0220589;0.196582;0.0946802
2.5449;0.0217756;0.195768;0.088181
2.56985;0.0219512;0.196215;0.0838433
2.5948;0.0213167;0.198003;0.0798737
2.61975;0.0215162;0.197828;0.0748958
2.6447;0.0213167;0.196894;0.0712944
2.66965;0.021165;0.197325;0.0641715
2.6946;0.0208299;0.196367;0.0606821
2.71955;0.020331;0.195888;0.0557519
2.7445;0.0204547;0.197804;0.0502617
2.76945;0.0201914;0.197101;0.0472362
2.7944;0.0202792;0.195992;0.040289
2.81935;0.0196886;0.19699;0.0349589
2.8443;0.0200916;0.196582;0.0314535
2.86925;0.0195768;0.197261;0.0256591
2.8942;0.0195888;0.196607;0.0204566
2.91915;0.0196606;0.197652;0.0159748
2.9441;0.0192895;0.196631;0.00944401
2.96905;0.0190262;0.19584;0.00617864
2.994;0.0190262;0.197852;0.000112048
3.01895;0.0189304;0.197133;-0.00281719
3.0439;0.0190022;0.197923;-0.00798742
3.06885;0.0189104;0.198163;-0.0133017
3.0938;0.0182201;0.197062;-0.0180077
3.11875;0.0184915;0.197788;-0.0239623
3.1437;0.018256;0.197397;-0.0302529
3.16865;0.0178849;0.197644;-0.0325739
3.1936;0.0179448;0.197516;-0.0395847
3.21855;0.0177413;0.198378;-0.0420501
3.2435;0.0176615;0.197891;-0.0480367
3.26845;0.0174779;0.196966;-0.0547915
3.2934;0.0174221;0.197133;-0.0591773
3.31835;0.0171866;0.197644;-0.0638994
3.3433;0.0174141;0.19703;-0.0694376
3.36825;0.0168315;0.196654;-0.0726389
3.3932;0.0170191;0.19782;-0.0798097
3.41815;0.017051;0.198626;-0.0852518
3.4431;0.0168954;0.19782;-0.0878609
3.46805;0.0167437;0.196966;-0.0943446
3.493;0.0166958;0.196407;-0.097562
3.51795;0.0167038;0.196247;-0.103821
3.5429;0.016616;0.197005;-0.10707
3.56785;0.0168515;0.198299;-0.111888
3.5928;0.0160813;0.195808;-0.118339
3.61775;0.0162729;0.196854;-0.12146
3.6427;0.016201;0.196359;-0.127799
3.66765;0.0160015;0.197492;-0.134569
3.6926;0.0160335;0.196774;-0.138187
3.71755;0.0158339;0.197229;-0.143773
3.7425;0.0160374;0.195736;-0.148959
3.76745;0.0157701;0.195258;-0.151952
3.7924;0.0156504;0.196104;-0.158659
3.81735;0.0154748;0.196694;-0.162437
3.8423;0.0153352;0.196742;-0.167687
3.86725;0.0153591;0.196822;-0.173865
3.8922;0.0151077;0.196798;-0.175914
3.91715;0.0151317;0.196606;-0.18254
3.9421;0.0152873;0.19604;-0.184286
3.96705;0.0148204;0.196862;-0.191683
3.992;0.014976;0.196223;-0.196869
4.01695;0.0148842;0.196702;-0.199014
4.0419;0.0147406;0.197349;-0.191971
4.06685;0.0147805;0.197987;-0.188479
4.0918;0.0152075;0.197077;-0.183709
4.11675;0.0151556;0.196798;-0.179451
4.1417;0.0150159;0.197021;-0.175674
4.16665;0.0151915;0.197429;-0.169479
4.1916;0.0150558;0.196918;-0.16655
4.21655;0.0154588;0.195433;-0.159876
4.2415;0.015399;0.19687;-0.154513
4.26645;0.0156783;0.196511;-0.151728
4.2914;0.0155626;0.196008;-0.144285
4.31635;0.0156224;0.195737;-0.142861
4.3413;0.0157621;0.195681;-0.136234
4.36625;0.0154509;0.195856;-0.129719
4.3912;0.015814;0.19837;-0.123973
4.41615;0.0155706;0.19691;-0.119811
4.4411;0.0158619;0.198283;-0.113281
4.46605;0.0161332;0.19754;-0.110623
4.491;0.0157462;0.197947;-0.103981
4.51595;0.0158898;0.197668;-0.100283
4.5409;0.0158659;0.198833;-0.0958493
4.56585;0.0159297;0.198003;-0.0885492
4.5908;0.016201;0.197828;-0.0874127
4.61575;0.016217;0.197341;-0.0817785
4.6407;0.0163327;0.196271;-0.0759202
4.66565;0.0166918;0.196279;-0.0718866
4.6906;0.0164205;0.197524;-0.0656441
4.71555;0.0164644;0.196766;-0.0626349
4.7405;0.0163168;0.197668;-0.0563602
4.76545;0.0166559;0.19782;-0.0513501
4.7904;0.0166839;0.197628;-0.0462436
4.81535;0.0170629;0.197796;-0.0399369
4.8403;0.0165442;0.196279;-0.035119
4.86525;0.0169472;0.195673;-0.0319497
4.8902;0.0170989;0.195729;-0.0248427
4.91515;0.017434;0.196551;-0.0215771
4.9401;0.0176096;0.196487;-0.0154626
4.96505;0.0175298;0.197365;-0.00894781
4.99;0.0175498;0.197413;-0.00617864
5.01495;0.0177213;0.196599;0
5.0399;0.0176535;0.196774;0.0033134
5.06485;0.0177692;0.197708;0.00798742
5.0898;0.017853;0.19683;0.0137339
5.11475;0.0180126;0.19774;0.0189521
5.1397;0.0181722;0.19695;0.0239943
5.16465;0.0182959;0.197947;0.030397
5.1896;0.0181323;0.198706;0.0325419
5.21455;0.0184994;0.196503;0.0389605
5.2395;0.0185992;0.197484;0.0438749
5.26445;0.0184875;0.19782;0.0479887
5.2894;0.0186471;0.197022;0.0539431
5.31435;0.0190182;0.196886;0.0571605
5.3393;0.0189942;0.196519;0.0636593
5.36425;0.0188187;0.197812;0.0686853
5.3892;0.0195768;0.196702;0.0725749
5.41415;0.0197005;0.195784;0.0786412
5.4391;0.0196566;0.195864;0.0798897
5.46405;0.0197604;0.195681;0.0871726
5.489;0.0198721;0.196096;0.0911432
5.51395;0.0200876;0.196846;0.0958973
5.5389;0.019908;0.196958;0.103597
5.56385;0.0204627;0.197149;0.106174
5.5888;0.0205665;0.19588;0.111776
5.61375;0.0209136;0.196511;0.115201
5.6387;0.0207819;0.196998;0.119971
5.66365;0.0213526;0.197485;0.126854
5.6886;0.021169;0.196088;0.131256
5.71355;0.021608;0.196918;0.135786
5.7385;0.0220509;0.196862;0.142749
5.76345;0.0218434;0.197373;0.14603
5.7884;0.0224779;0.19687;0.15176
5.81335;0.0224938;0.197692;0.156226
5.8383;0.0225936;0.197764;0.159908
5.86325;0.0231283;0.196247;0.16703
5.8882;0.0234036;0.197261;0.167975
5.91315;0.0232879;0.196734;0.175082
5.9381;0.0234595;0.198243;0.179227
5.96305;0.0240422;0.197165;0.184061
5.988;0.0241219;0.197373;0.190674
6.01295;0.0241139;0.197796;0.193475
6.0379;0.0247205;0.197508;0.199686
6.06285;0.02494;0.196894;0.205352
6.0878;0.024924;0.197141;0.21025
6.11275;0.025387;0.196631;0.215661
6.1377;0.0264086;0.196056;0.219966
6.16265;0.0264685;0.196223;0.223792
6.1876;0.0265801;0.196423;0.230339
6.21255;0.0275418;0.196223;0.232916
6.2375;0.0281005;0.196726;0.239303
6.26245;0.0274022;0.195896;0.246442
6.2874;0.0285115;0.196176;0.248715
6.31235;0.0291261;0.197724;0.255597
6.3373;0.0289784;0.197445;0.258287
6.36225;0.0294373;0.19766;0.263585
6.3872;0.0310015;0.197564;0.267922
6.41215;0.0314006;0.195816;0.272612
6.4371;0.0305426;0.196535;0.27956
6.46205;0.0325737;0.197748;0.282088
6.487;0.0326375;0.197077;0.287547
6.51195;0.0333358;0.196535;0.293118
6.5369;0.0328849;0.19683;0.296879
6.56185;0.0370188;0.195593;0.303169
6.5868;0.0331722;0.19584;0.307219
6.61175;0.0363445;0.197189;0.311733
6.6367;0.0360612;0.197908;0.318631
6.66165;0.0386748;0.198067;0.322426
6.6866;0.0366518;0.197947;0.328124
6.71155;0.0384793;0.197549;0.332909
6.7365;0.0407178;0.19754;0.335469
6.76145;0.0413723;0.197141;0.341329
6.7864;0.0409732;0.197884;0.346018
6.81135;0.0420507;0.197524;0.351444
6.8363;0.0442934;0.197748;0.356376
6.86125;0.0425294;0.196064;0.361736
6.8862;0.0459732;0.196231;0.367274
6.91115;0.0447841;0.197476;0.369933
6.9361;0.0472701;0.197852;0.375407
6.96105;0.046508;0.196391;0.381396
6.986;0.0489303;0.198666;0.388485
7.01095;0.0486187;0.19687;0.390358
7.0359;0.0493215;0.197652;0.398091
7.06085;0.0514644;0.198211;0.399724
7.0858;0.0492014;0.196471;0.40734
7.11075;0.0522621;0.196543;0.408702
7.1357;0.0521428;0.197844;0.415474
7.16065;0.0513644;0.198035;0.422979
7.1856;0.0529129;0.198203;0.424452
7.21055;0.0526456;0.197955;0.431161
7.2355;0.0535753;0.197668;0.436488
7.26045;0.0526655;0.197109;0.439754
7.2854;0.0534994;0.198426;0.447056
7.31035;0.0539544;0.198778;0.448351
7.3353;0.0533718;0.198171;0.45512
7.36025;0.0531962;0.198251;0.459605
7.3852;0.0523982;0.197517;0.465846
7.41015;0.052857;0.19588;0.471255
7.4351;0.0517394;0.197948;0.475868
7.46005;0.0519433;0.197173;0.479294
7.485;0.0515601;0.198378;0.487021
7.50995;0.0501153;0.198897;0.491266
7.5349;0.05073;0.197756;0.496755
7.55985;0.0492214;0.198107;0.502836
7.5848;0.048539;0.198522;0.505767
7.60975;0.0486787;0.197828;0.511195
7.6347;0.0468272;0.197301;0.51681
7.65965;0.047302;0.198506;0.519531
7.6846;0.0466117;0.198897;0.526017
7.70955;0.0447083;0.197189;0.53128
7.7345;0.0454545;0.197884;0.535953
7.75945;0.0443373;0.198434;0.542599
7.7844;0.0432557;0.198634;0.546327
7.80935;0.0428926;0.197804;0.551304
7.8343;0.0415998;0.19869;0.558224
7.85925;0.0413204;0.198107;0.560624
7.8842;0.0406859;0.197939;0.567183
7.90915;0.0395208;0.198937;0.574213
7.9341;0.0393691;0.198339;0.578407
7.95905;0.038188;0.197572;0.58308
7.984;0.0376932;0.197022;0.587756
8.00895;0.0367475;0.19691;0.591069
8.0339;0.0362328;0.197476;0.597036
8.05885;0.0354786;0.197525;0.60179
8.0838;0.035343;0.198083;0.607041
8.10875;0.0338865;0.197939;0.613493
8.1337;0.0342895;0.198506;0.615269
8.15865;0.0333478;0.198219;0.62233
8.1836;0.0332919;0.198394;0.623562
8.20855;0.0312569;0.197796;0.630761
8.2335;0.0319751;0.196742;0.636189
8.25845;0.0309217;0.197285;0.640417
8.2834;0.0300479;0.196926;0.646979
8.30835;0.0299241;0.197237;0.651782
8.3333;0.0291819;0.197221;0.65508
8.35825;0.0289465;0.197149;0.66223
8.3832;0.0288427;0.196072;0.664727
8.40815;0.0282202;0.196838;0.670859
8.4331;0.0277653;0.197508;0.677488
8.45805;0.0273104;0.198227;0.678928
8.483;0.0266959;0.198091;0.685652
8.50795;0.0260973;0.197093;0.689044
8.5329;0.0260494;0.196088;0.694899
8.55785;0.0257421;0.196654;0.700261
8.5828;0.0254987;0.197309;0.702887
8.60775;0.0248521;0.197046;0.709229
8.6327;0.0246088;0.198075;0.714446
8.65765;0.0241738;0.197477;0.719793
8.6826;0.0235513;0.198227;0.726592
8.70755;0.0234395;0.198019;0.729904
8.7325;0.023252;0.197868;0.734836
8.75745;0.0230365;0.198897;0.739855
8.7824;0.0223661;0.197277;0.743008
8.80735;0.02243;0.19695;0.750527
8.8323;0.0219911;0.197476;0.7556
8.85725;0.0220389;0.197859;0.758946
8.8822;0.0215401;0.197876;0.764698
8.90715;0.0212528;0.197205;0.76721
8.9321;0.0210214;0.19671;0.773677
8.95705;0.0206982;0.196654;0.776812
8.982;0.0207221;0.19766;0.78294
9.00695;0.0199679;0.198538;0.788734
9.0319;0.0204188;0.198091;0.783852
9.05685;0.0206543;0.19766;0.778158
9.0818;0.0208538;0.197947;0.77435
9.10675;0.021193;0.198355;0.767915
9.1317;0.0212289;0.198075;0.766008
9.15665;0.021157;0.198123;0.759138
9.1816;0.0212728;0.198881;0.757363
9.20655;0.0215202;0.198379;0.750815
9.2315;0.0218314;0.198762;0.744336
9.25645;0.0220868;0.198139;0.742479
9.2814;0.0220389;0.198378;0.73554
9.30635;0.0223103;0.197612;0.730835
9.3313;0.0225617;0.198785;0.726848
9.35625;0.0227971;0.19865;0.721155
9.3812;0.0233278;0.198187;0.715537
9.40615;0.0235872;0.197987;0.710878
9.4311;0.0236071;0.199017;0.704024
9.45605;0.0237269;0.198442;0.702743
9.481;0.02405;0.19691;0.696004
9.50595;0.0241019;0.198195;0.692804
9.5309;0.0248642;0.197924;0.686309
9.55585;0.0249041;0.197405;0.679441
9.5808;0.0256225;0.196359;0.677757
9.60575;0.0256464;0.197628;0.672027
9.6307;0.0260933;0.198371;0.668266
9.65565;0.0263846;0.197883;0.66263
9.6806;0.0265921;0.198147;0.655832
9.70555;0.0266799;0.198067;0.653111
9.7305;0.0275419;0.197612;0.646979
9.75545;0.0278491;0.197125;0.641615
9.7804;0.0284038;0.196575;0.637438
9.80535;0.0286073;0.195705;0.631097
9.8303;0.0287629;0.196104;0.624683
9.85525;0.0297845;0.19695;0.622619
9.8802;0.0303112;0.198754;0.616758
9.90515;0.0308818;0.197285;0.614067
9.9301;0.0314804;0.196535;0.607041
9.95505;0.0317397;0.197796;0.603471
9.98;0.0327014;0.198506;0.598668
10.0049;0.0331403;0.196926;0.591405
10.0299;0.0339383;0.196646;0.590061
10.0548;0.0345688;0.197468;0.583192
10.0798;0.0351873;0.198067;0.579014
10.1047;0.0361529;0.197923;0.574837
10.1297;0.0368113;0.196487;0.56776
10.1546;0.0379965;0.197524;0.563345
10.1796;0.0383795;0.197955;0.55912
10.2045;0.0393173;0.196782;0.55297
10.2295;0.0401991;0.195952;0.54764
10.2544;0.0416556;0.195944;0.543063
10.2794;0.0426253;0.196886;0.537362
10.3043;0.0436988;0.197061;0.533234
10.3293;0.0449158;0.196982;0.527057
10.3542;0.0459134;0.198131;0.520923
10.3792;0.0467992;0.197396;0.51678
10.4042;0.0484432;0.197987;0.511195
10.4291;0.0491775;0.199049;0.507734
10.4541;0.0502749;0.198602;0.503204
10.479;0.0515402;0.198714;0.498406
10.504;0.0521268;0.19873;0.492689
10.5289;0.0539145;0.198362;0.487229
10.5539;0.054968;0.198187;0.482031
10.5788;0.0555346;0.198522;0.478252
10.6037;0.0568554;0.197708;0.471287
10.6287;0.05743;0.198235;0.467192
10.6536;0.0584795;0.198674;0.462101
10.6786;0.0588267;0.197532;0.45568
10.7035;0.0599919;0.197301;0.450673
10.7285;0.0603112;0.197293;0.447296
10.7534;0.0608139;0.197756;0.441498
10.7784;0.060806;0.198243;0.436987
10.8033;0.0609416;0.198083;0.431321
10.8283;0.0611731;0.197516;0.425876
10.8532;0.0608498;0.196663;0.422803
10.8782;0.0608698;0.198267;0.416611
10.9031;0.060391;0.199041;0.414113
10.9281;0.0598323;0.197612;0.407484
10.953;0.0592417;0.197253;0.402509
10.978;0.0588188;0.196415;0.39926
11.0029;0.058691;0.198219;0.391542
11.0279;0.0573821;0.197628;0.389287
11.0528;0.0568594;0.198977;0.383141
11.0778;0.0555546;0.197022;0.376032
11.1027;0.0549161;0.19612;0.371739
11.1277;0.0542417;0.199193;0.367418
11.1526;0.053312;0.198945;0.362522
11.1776;0.0522744;0.198674;0.358856
11.2025;0.0513485;0.197788;0.352228
11.2275;0.0501471;0.1975;0.348628
11.2524;0.0491934;0.197588;0.343458
11.2774;0.0483115;0.197668;0.33659
11.3024;0.0474656;0.198147;0.335165
11.3273;0.0458296;0.198259;0.327948
11.3523;0.0456341;0.197181;0.323929
11.3772;0.043998;0.198578;0.319479
11.4022;0.0436748;0.197588;0.312197
11.4271;0.0425494;0.197476;0.310404
11.452;0.0417513;0.198658;0.303521
11.477;0.0409413;0.197828;0.299088
11.5019;0.0398998;0.197924;0.294846
11.5269;0.0388464;0.197245;0.287675
11.5518;0.0382399;0.197349;0.285242
11.5768;0.0374179;0.198075;0.27956
11.6017;0.0366198;0.198706;0.273941
11.6267;0.0359774;0.19762;0.270836
11.6516;0.0355823;0.197412;0.263649
11.6766;0.0348002;0.198043;0.260399
11.7015;0.0342017;0.197668;0.255597
11.7265;0.0333917;0.197867;0.250619
11.7514;0.0329408;0.19774;0.24761
11.7764;0.0322744;0.196567;0.2414
11.8013;0.0317677;0.197756;0.236197
11.8263;0.0309217;0.19687;0.231636
11.8512;0.0305945;0.197883;0.225185
11.8762;0.029976;0.197493;0.221135
11.9011;0.0297645;0.196119;0.215661
11.9261;0.0292139;0.196024;0.211355
11.951;0.0286272;0.196207;0.206921
11.976;0.0279728;0.19667;0.200246
12.0009;0.0279529;0.197652;0.195076
12.0259;0.0275658;0.196694;0.191699
12.0508;0.0269872;0.197373;0.185326
12.0758;0.0267677;0.1975;0.18254
12.1007;0.0262689;0.197237;0.176026
12.1257;0.0260575;0.197125;0.169623
12.1507;0.025822;0.197373;0.167703
12.1756;0.0252034;0.19778;0.162581
12.2006;0.0248442;0.198937;0.158995
12.2255;0.0247964;0.19857;0.151824
12.2505;0.0246407;0.198235;0.146606
12.2754;0.0241378;0.198618;0.143645
12.3003;0.0241977;0.198905;0.137322
12.3253;0.0235592;0.199033;0.134137
12.3502;0.023659;0.197772;0.127959
12.3752;0.0234395;0.199145;0.122533
12.4001;0.0232959;0.1979;0.117715
12.4251;0.0227891;0.19786;0.111824
12.45;0.0225497;0.19675;0.108014
12.475;0.0222744;0.197875;0.103837
12.4999;0.022003;0.19853;0.0991147
12.5249;0.0218713;0.198482;0.0950806
12.5498;0.0218634;0.198035;0.088021
12.5748;0.0215082;0.198849;0.0821626
12.5997;0.0215721;0.198283;0.0797937
12.6247;0.0209097;0.196463;0.0734873
12.6496;0.0210653;0.196096;0.0710063
12.6746;0.0209575;0.197492;0.0641875
12.6995;0.0208218;0.196383;0.0590814
12.7245;0.0201953;0.197437;0.055912
12.7494;0.0199798;0.19778;0.0484369
12.7744;0.0199439;0.197261;0.0465798
12.7993;0.0197444;0.197293;0.0404011
12.8243;0.019497;0.19754;0.0343827
12.8492;0.0195928;0.197117;0.0309573
12.8742;0.0195289;0.196838;0.0242184
12.8991;0.0193534;0.196519;0.0207447
12.9241;0.0192536;0.196175;0.0152385
12.949;0.0187628;0.196407;0.00949204
12.974;0.0189224;0.197628;0.00581048
12.999;0.0188626;0.197788;0
13.0239;0.018687;0.19667;-0.0042418
13.0489;0.0183119;0.195673;-0.00798742
13.0738;0.018268;0.196471;-0.0132377
13.0988;0.0182281;0.19655;-0.0191442
13.1237;0.0181922;0.197325;-0.0239623
13.1486;0.0178969;0.197437;-0.0299488
13.1736;0.017861;0.19754;-0.0334543
13.1985;0.0177453;0.196535;-0.0399369
13.2235;0.0176296;0.196367;-0.0437308
13.2484;0.0176774;0.198019;-0.0484529
13.2734;0.0173742;0.196575;-0.0555118
13.2983;0.0168914;0.195473;-0.0598816
13.3233;0.0171827;0.195888;-0.0640114
13.3482;0.0172824;0.195553;-0.0699819
13.3732;0.0170789;0.195433;-0.0738554
13.3981;0.0171029;0.196702;-0.0799538
13.4231;0.0169951;0.196439;-0.0865483
13.448;0.0165761;0.196311;-0.0880371
13.473;0.0165682;0.19612;-0.0943126
13.4979;0.0164285;0.195792;-0.0991626
13.5229;0.0162489;0.195489;-0.103837
13.5478;0.0163527;0.196918;-0.108991
13.5728;0.0160135;0.19584;-0.113185
13.5977;0.0158659;0.195361;-0.119427
13.6227;0.0160015;0.196375;-0.121972
13.6476;0.0160015;0.196096;-0.128759
13.6726;0.0156105;0.19612;-0.135626
13.6975;0.0154389;0.196399;-0.139979
13.7225;0.0156863;0.196303;-0.144013
13.7474;0.0156544;0.196646;-0.149151
13.7724;0.0156145;0.196758;-0.152032
13.7973;0.0151556;0.196575;-0.159523
13.8223;0.0154389;0.195601;-0.163381
13.8472;0.0155666;0.195505;-0.168439
13.8722;0.0152913;0.195832;-0.17529
13.8972;0.0151277;0.195792;-0.176858
13.9221;0.0149281;0.195768;-0.183677
13.9471;0.0152833;0.196135;-0.186736
13.972;0.0150119;0.196623;-0.191699
