t;vds;corrente;vg
0.00998;0.0138868;0.04159;0.0158312
0.01996;0.0237338;0.0414516;0.0392066
0.02994;0.0332583;0.0408441;0.0584741
0.03992;0.0427569;0.0412037;0.078669
0.0499;0.0524288;0.0421868;0.0973932
0.05988;0.0622596;0.0427543;0.114919
0.06986;0.0721684;0.0423547;0.134986
0.07984;0.0818936;0.043162;0.153679
0.08982;0.0915556;0.0416432;0.172372
0.0998;0.101108;0.0424426;0.190153
0.10978;0.110985;0.0425305;0.210475
0.11976;0.120649;0.042075;0.23019
0.12974;0.126899;0.043106;0.249282
0.13972;0.12711;0.0427304;0.266712
0.1497;0.12711;0.0426185;0.285056
0.15968;0.12711;0.0426504;0.303955
0.16966;0.12711;0.043146;0.32399
0.17964;0.12711;0.0434177;0.342971
0.18962;0.12711;0.0426824;0.361742
0.1996;0.12711;0.0430181;0.381827
0.20958;0.12711;0.0434977;0.401797
0.21956;0.12711;0.0438733;0.421175
0.22954;0.12711;0.0438094;0.438733
0.23952;0.12711;0.0438733;0.456386
0.2495;0.12711;0.0438494;0.47743
0.25948;0.12711;0.0435456;0.496059
0.26946;0.12711;0.0436256;0.514
0.27944;0.12711;0.0437375;0.533826
0.28942;0.12711;0.0436815;0.553331
0.2994;0.12711;0.0437055;0.574362
0.30938;0.12711;0.0438494;0.5923
0.31936;0.12711;0.0437774;0.611631
0.32934;0.12711;0.0436176;0.629542
0.33932;0.12711;0.0438653;0.650215
0.3493;0.12711;0.0438254;0.668305
0.35928;0.12711;0.0438654;0.685907
0.36926;0.12711;0.0438733;0.70334
0.37924;0.12711;0.0438334;0.724681
0.38922;0.12711;0.043162;0.74436
0.3992;0.12711;0.043146;0.749321
0.40918;0.12711;0.0438574;0.72912
0.41916;0.12711;0.0436096;0.708402
0.42914;0.12711;0.0437455;0.690426
0.43912;0.12711;0.0437774;0.672456
0.4491;0.12711;0.0438254;0.65423
0.45908;0.12711;0.0438653;0.635004
0.46906;0.12711;0.0437614;0.615594
0.47904;0.12711;0.0425545;0.5977
0.48902;0.12711;0.04313;0.579793
0.499;0.12711;0.0438733;0.558715
0.50898;0.12711;0.0438094;0.538491
0.51896;0.12711;0.0427463;0.518872
0.52894;0.12711;0.0436495;0.501696
0.53892;0.12711;0.0435456;0.482653
0.5489;0.12711;0.0432339;0.461644
0.55888;0.12711;0.0431859;0.442425
0.56886;0.12711;0.0432419;0.424899
0.57884;0.12711;0.0435776;0.407467
0.58882;0.12711;0.0429621;0.387399
0.5988;0.12711;0.0425944;0.367045
0.60878;0.12711;0.0431301;0.347714
0.61876;0.12711;0.0424107;0.328863
0.62874;0.12711;0.0423547;0.308829
0.63872;0.12711;0.0432179;0.289832
0.6487;0.12711;0.0420909;0.271345
0.65868;0.12711;0.0421389;0.254666
0.66866;0.122635;0.0423227;0.235702
0.67864;0.113053;0.0414036;0.215028
0.68862;0.103357;0.0423627;0.194467
0.6986;0.0936415;0.0415954;0.176925
0.70858;0.084035;0.0417953;0.158345
0.71856;0.0743059;0.0417472;0.139459
0.72854;0.0644747;0.0421549;0.119361
0.73852;0.054566;0.0411238;0.10217
0.7485;0.0448784;0.0403325;0.0832704
0.75848;0.0353239;0.0405243;0.0638263
0.76846;0.0257994;0.0398849;0.0425938
0.77844;0.0159585;0.0402526;0.0236934
0.78842;0.00611157;0.0409;0.00525629
0.7984;-0.00356224;0.040964;-0.0121582
0.80838;-0.0134013;0.0401327;-0.0318574
0.81836;-0.0233497;0.0409639;-0.0513646
0.82834;-0.0330155;0.0404044;-0.0707927
0.83832;-0.0424923;0.0405243;-0.0889099
0.8483;-0.0520905;0.0402206;-0.108544
0.85828;-0.0619412;0.0402046;-0.129042
0.86826;-0.0715853;0.0400528;-0.147736
0.87824;-0.0813944;0.0400208;-0.166077
0.88822;-0.0912312;0.0408041;-0.184865
0.8982;-0.0949326;0.0400368;-0.192534
0.90818;-0.0855275;0.0407082;-0.174593
0.91816;-0.0757387;0.0402925;-0.155453
0.92814;-0.0659552;0.0399968;-0.137206
0.93812;-0.0562875;0.0399169;-0.118802
0.9481;-0.0465023;0.0399968;-0.0984317
0.95808;-0.0370176;0.0399568;-0.0790846
0.96806;-0.027489;0.040916;-0.0602636
0.97804;-0.0175744;0.0402606;-0.0401175
0.98802;-0.00768174;0.0404444;-0.0211531
0.998;0.00200003;0.0399728;-0.00226868
1.00798;0.0118529;0.0401167;0.0153695
1.01796;0.0217416;0.0409319;0.0343019
1.02794;0.0313975;0.0421069;0.0542882
1.03792;0.0408683;0.0407961;0.0737962
1.0479;0.0504963;0.0414835;0.0945814
1.05788;0.0602896;0.0411957;0.111276
1.06786;0.0701902;0.042075;0.130433
1.07784;0.0799397;0.0407242;0.150133
1.08782;0.0895911;0.0407002;0.168378
1.0978;0.0991837;0.0407801;0.185744
1.10778;0.109039;0.042035;0.206097
1.11776;0.118693;0.0416673;0.225684
1.12774;0.126366;0.0408121;0.245879
1.13772;0.12711;0.0410199;0.26243
1.1477;0.12711;0.0408201;0.280742
1.15768;0.12711;0.042027;0.300297
1.16766;0.12711;0.0422588;0.320011
1.17764;0.12711;0.0427064;0.339184
1.18762;0.12711;0.0424985;0.358595
1.1976;0.12711;0.0433538;0.378231
1.20758;0.12711;0.0429302;0.398298
1.21756;0.12711;0.0418832;0.417086
1.22754;0.12711;0.0426025;0.43506
1.23752;0.12711;0.0425465;0.452633
1.2475;0.12711;0.0419791;0.472683
1.25748;0.12711;0.0417552;0.493278
1.26746;0.12711;0.0420909;0.510708
1.27744;0.12711;0.043146;0.528714
1.28742;0.12711;0.0436655;0.549706
1.2974;0.12711;0.043106;0.570976
1.30738;0.12711;0.0429142;0.589251
1.31736;0.12711;0.0434497;0.608279
1.32734;0.12711;0.0437535;0.62609
1.33732;0.12711;0.0437135;0.646154
1.3473;0.12711;0.0438733;0.664149
1.35728;0.12711;0.0436176;0.682743
1.36726;0.12711;0.0433698;0.69989
1.37724;0.12711;0.0438494;0.719297
1.38722;0.12711;0.0434657;0.740494
1.3972;0.12711;0.0438014;0.752304
1.40718;0.12711;0.0436415;0.733516
1.41716;0.12711;0.0435936;0.713052
1.42714;0.12711;0.0436975;0.694626
1.43712;0.12711;0.0438494;0.677009
1.4471;0.12711;0.0432179;0.658539
1.45708;0.12711;0.0434737;0.638824
1.46706;0.12711;0.0434817;0.619671
1.47704;0.12711;0.0427224;0.601502
1.48702;0.12711;0.0418751;0.582332
1.497;0.12711;0.0438653;0.562676
1.50698;0.12711;0.0436895;0.542644
1.51696;0.12711;0.0438094;0.522388
1.52694;0.12711;0.0434657;0.504733
1.53692;0.12711;0.0426744;0.485992
1.5469;0.12711;0.0430661;0.464935
1.55688;0.12711;0.0427225;0.445891
1.56686;0.12711;0.0416833;0.428893
1.57684;0.12711;0.0421149;0.411383
1.58682;0.12711;0.0416194;0.391619
1.5968;0.12711;0.0425865;0.370193
1.60678;0.12711;0.0413397;0.352203
1.61676;0.12711;0.0407721;0.332537
1.62674;0.12711;0.0424746;0.312967
1.63672;0.12711;0.0419551;0.293907
1.6467;0.12711;0.0426025;0.274652
1.65668;0.12711;0.0428583;0.257909
1.66666;0.124281;0.0426505;0.23968
1.67664;0.114961;0.0407721;0.219598
1.68662;0.105228;0.0411478;0.199196
1.6966;0.0954202;0.0425545;0.180728
1.70658;0.0859196;0.0412437;0.162419
1.71656;0.0762025;0.0407721;0.143518
1.72654;0.0664507;0.0409;0.123419
1.73652;0.0565004;0.0400128;0.10511
1.7465;0.0468824;0.0408681;0.0869769
1.75648;0.0372424;0.0407162;0.0671335
1.76646;0.0277617;0.0408441;0.0474666
1.77644;0.0179704;0.0402206;0.0281508
1.78642;0.00808772;0.0409719;0.00833975
1.7964;-0.00158012;0.0406123;-0.0082759
1.80638;-0.0114231;0.0410599;-0.026553
1.81636;-0.0212959;0.0402446;-0.0474024
1.82634;-0.0311965;0.0406762;-0.0668944
1.83632;-0.0405837;0.0400128;-0.0862577
1.8463;-0.0501361;0.0405323;-0.104742
1.85628;-0.0599413;0.0399169;-0.12556
1.86626;-0.0697464;0.0399009;-0.145004
1.87624;-0.0793803;0.0407162;-0.161492
1.88622;-0.0892151;0.0415634;-0.18012
1.8962;-0.0956031;0.042011;-0.193812
1.90618;-0.087528;0.0400048;-0.177772
1.91616;-0.0776607;0.0399488;-0.15892
1.92614;-0.0678697;0.0398849;-0.141872
1.93612;-0.0581464;0.0399488;-0.121422
1.9461;-0.048353;0.0405323;-0.102442
1.95608;-0.0388763;0.0400128;-0.0828391
1.96606;-0.0294473;0.0399329;-0.0641298
1.97604;-0.0195486;0.0401247;-0.0442713
1.98602;-0.0096599;0.0402686;-0.023949
1.996;8.15932e-05;0.0399888;-0.00578352
2.00598;0.00994447;0.0412757;0.0120463
2.01596;0.0197973;0.0402126;0.0312183
2.02594;0.0294532;0.0405403;0.0488723
2.03592;0.0388783;0.0401487;0.0699939
2.0459;0.0485858;0.0399968;0.088846
2.05588;0.0583053;0.0401247;0.107953
2.06586;0.0682042;0.0400687;0.126342
2.07584;0.0779913;0.0422748;0.146315
2.08582;0.0876275;0.0413316;0.165023
2.0958;0.0972072;0.0417712;0.182964
2.10578;0.107065;0.0415874;0.201496
2.11576;0.116823;0.0426824;0.222234
2.12574;0.125477;0.0426105;0.242189
2.13572;0.12711;0.042027;0.260289
2.1457;0.12711;0.0413876;0.277849
2.15568;0.12711;0.0415154;0.296112
2.16566;0.12711;0.0423627;0.316752
2.17564;0.12711;0.0413476;0.335108
2.18562;0.12711;0.0420749;0.355047
2.1956;0.12711;0.0427224;0.373564
2.20558;0.12711;0.0422109;0.393551
2.21556;0.12711;0.0423067;0.413586
2.22554;0.12711;0.0421389;0.431225
2.23552;0.12711;0.0426505;0.448208
2.2455;0.12711;0.0407401;0.46837
2.25548;0.12711;0.0427144;0.488644
2.26546;0.12711;0.0434178;0.507255
2.27544;0.12711;0.0424745;0.524606
2.28542;0.12711;0.0428503;0.544913
2.2954;0.12711;0.0432099;0.56567
2.30538;0.12711;0.0427143;0.585672
2.31536;0.12711;0.0438094;0.604239
2.32534;0.12711;0.0436336;0.621938
2.33532;0.12711;0.0436016;0.642034
2.3453;0.12711;0.0436575;0.660855
2.35528;0.12711;0.0436735;0.678427
2.36526;0.12711;0.0438733;0.69626
2.37524;0.12711;0.0436496;0.716262
2.38522;0.12711;0.0426904;0.737303
2.3952;0.12711;0.0438574;0.752799
2.40518;0.12711;0.0437534;0.738421
2.41516;0.12711;0.043218;0.716873
2.42514;0.12711;0.043098;0.696736
2.43512;0.12711;0.0435696;0.679309
2.4451;0.12711;0.0434817;0.661221
2.45508;0.12711;0.0424746;0.64301
2.46506;0.12711;0.0425865;0.62282
2.47504;0.12711;0.0427384;0.605226
2.48502;0.12711;0.0434577;0.586886
2.495;0.12711;0.0433618;0.567151
2.50498;0.12711;0.0431779;0.546701
2.51496;0.12711;0.0429382;0.526364
2.52494;0.12711;0.0428742;0.508073
2.53492;0.12711;0.043178;0.49018
2.5449;0.12711;0.043058;0.469952
2.55488;0.12711;0.0432259;0.449995
2.56486;0.12711;0.0423547;0.432534
2.57484;0.12711;0.0434817;0.414545
2.58482;0.12711;0.0430261;0.395806
2.5948;0.12711;0.0424826;0.375194
2.60478;0.12711;0.0422988;0.357046
2.61476;0.12711;0.0421069;0.33602
2.62474;0.12711;0.0433618;0.317822
2.63472;0.12711;0.0433938;0.297262
2.6447;0.12711;0.0422508;0.278487
2.65468;0.12711;0.0429941;0.260513
2.66466;0.12559;0.0434018;0.243435
2.67464;0.117045;0.0432659;0.223703
2.68462;0.107265;0.0429621;0.203254
2.6946;0.0973605;0.042011;0.184498
2.70458;0.0879162;0.0424267;0.166365
2.71456;0.0782159;0.0424746;0.147257
2.72454;0.0683991;0.0426425;0.12786
2.73452;0.0585583;0.0413237;0.109679
2.7445;0.0487868;0.04086;0.0910987
2.75448;0.0390972;0.0428902;0.0716553
2.76446;0.0296503;0.0423547;0.0515405
2.77444;0.0199187;0.0412277;0.0322567
2.78442;0.0101435;0.0415874;0.0135802
2.7944;0.000378115;0.0411638;-0.00516045
2.80438;-0.00940715;0.0413396;-0.0231979
2.81436;-0.0192839;0.0408441;-0.0429451
2.82434;-0.0292542;0.0414276;-0.0632994
2.83432;-0.0386117;0.041939;-0.0812571
2.8443;-0.0482117;0.0428263;-0.10078
2.85428;-0.0578934;0.0408281;-0.120655
2.86426;-0.0676868;0.0412197;-0.140803
2.87424;-0.0774539;0.0402606;-0.158105
2.88422;-0.0873887;0.0401806;-0.177149
2.8942;-0.0956135;0.0405803;-0.193189
2.90418;-0.0895279;0.0403405;-0.181958
2.91416;-0.0795395;0.041995;-0.161956
2.92414;-0.0698559;0.0410918;-0.14534
2.93412;-0.0601324;0.0412517;-0.12671
2.9441;-0.050377;0.0402446;-0.106084
2.95408;-0.0408005;0.0410518;-0.0871207
2.96406;-0.0313498;0.0411718;-0.0678525
2.97404;-0.0215327;0.0402526;-0.0480577
2.98402;-0.0116181;0.0412357;-0.0284544
2.994;-0.00180102;0.0408041;-0.00848355
3.00398;0.00791656;0.0401167;0.00765281
3.01396;0.0177794;0.042099;0.0268246
3.02394;0.0275487;0.0411718;0.0462202
3.03392;0.0370155;0.0416913;0.0666389
3.0439;0.0466733;0.0404604;0.0866411
3.05388;0.0563034;0.0402446;0.104534
3.06386;0.066204;0.040884;0.121997
3.07384;0.0760371;0.0407561;0.142257
3.08382;0.0857687;0.0412437;0.160661
3.0938;0.0953369;0.0419231;0.179369
3.10378;0.105112;0.0424106;0.198477
3.11376;0.114899;0.0404204;0.218271
3.12374;0.124157;0.0399968;0.238322
3.13372;0.12711;0.0416513;0.256775
3.1437;0.12711;0.0416993;0.273278
3.15368;0.12711;0.0403085;0.292949
3.16366;0.12711;0.0423867;0.312264
3.17364;0.12711;0.0420989;0.33153
3.18362;0.12711;0.0424106;0.350749
3.1936;0.12711;0.0422907;0.369393
3.20358;0.12711;0.0429622;0.390228
3.21356;0.12711;0.0424507;0.409879
3.22354;0.12711;0.042035;0.428252
3.23352;0.12711;0.0419951;0.444708
3.2435;0.12711;0.0425545;0.464504
3.25348;0.12711;0.0427064;0.485434
3.26346;0.12711;0.0429702;0.504124
3.27344;0.12711;0.0433618;0.521044
3.28342;0.12711;0.0438414;0.541461
3.2934;0.12711;0.0437694;0.562393
3.30338;0.12711;0.0432739;0.582059
3.31336;0.12711;0.0424346;0.600579
3.32334;0.12711;0.0428583;0.619126
3.33332;0.12711;0.0430181;0.638284
3.3433;0.12711;0.0434018;0.658154
3.35328;0.12711;0.0438733;0.675601
3.36326;0.12711;0.0437295;0.692936
3.37324;0.12711;0.0438733;0.711769
3.38322;0.12711;0.0437774;0.733249
3.3932;0.12711;0.0438733;0.751553
3.40318;0.12711;0.0437135;0.742271
3.41316;0.12711;0.0435776;0.720241
3.42314;0.12711;0.0437694;0.700573
3.43312;0.12711;0.0431939;0.683098
3.4431;0.12711;0.0434017;0.664577
3.45308;0.12711;0.0436176;0.647403
3.46306;0.12711;0.0437694;0.627241
3.47304;0.12711;0.0438094;0.608471
3.48302;0.12711;0.0433618;0.589795
3.493;0.12711;0.0438414;0.57281
3.50298;0.12711;0.0438254;0.550857
3.51296;0.12711;0.0427544;0.530453
3.52294;0.12711;0.0432659;0.510708
3.53292;0.12711;0.04305;0.493375
3.5429;0.12711;0.0426584;0.473388
3.55288;0.12711;0.0417792;0.454245
3.56286;0.12711;0.0429222;0.43568
3.57284;0.12711;0.043226;0.417596
3.58282;0.12711;0.0424586;0.399464
3.5928;0.12711;0.0430102;0.378548
3.60278;0.12711;0.042051;0.359378
3.61276;0.12711;0.0418352;0.340606
3.62274;0.12711;0.0427624;0.321625
3.63272;0.12711;0.0422588;0.30223
3.6427;0.12711;0.0417553;0.282657
3.65268;0.12711;0.0412197;0.264092
3.66266;0.126439;0.0404684;0.247061
3.67264;0.118913;0.0404204;0.227889
3.68262;0.109239;0.040876;0.207983
3.6926;0.099349;0.0403805;0.187342
3.70258;0.0898084;0.0403485;0.168698
3.71256;0.0801326;0.0402446;0.150676
3.72254;0.0703992;0.0410439;0.131774
3.73252;0.0605264;0.0405803;0.112475
3.7425;0.0507571;0.0405723;0.0946774
3.75248;0.0410692;0.0402685;0.0745313
3.76246;0.0316006;0.0410998;0.0553907
3.77244;0.0219049;0.0406682;0.0344455
3.78242;0.0120241;0.0404524;0.0156251
3.7924;0.00226869;0.0412677;-0.00108641
3.80238;-0.00744888;0.0405882;-0.0189962
3.81236;-0.0173555;0.0403885;-0.0393025
3.82234;-0.027298;0.0401806;-0.0590652
3.83232;-0.0367588;0.0401807;-0.0780459
3.8423;-0.0463191;0.0403165;-0.0969938
3.85228;-0.0559592;0.040956;-0.116197
3.86226;-0.0656984;0.0401726;-0.136696
3.87224;-0.0754302;0.0400607;-0.153967
3.88222;-0.0853288;0.040924;-0.17266
3.8922;-0.0947959;0.0403565;-0.191703
3.90218;-0.0914361;0.0409001;-0.185313
3.91216;-0.0815498;0.0401567;-0.166141
3.92214;-0.0718019;0.0409399;-0.148967
3.93212;-0.0621125;0.0410359;-0.129458
3.9421;-0.0522416;0.040996;-0.109647
3.95208;-0.0426396;0.0403006;-0.0898366
3.96206;-0.0332045;0.0411637;-0.0713038
3.97204;-0.0235168;0.0405083;-0.052547
3.98202;-0.0135545;0.0410039;-0.0318253
3.992;-0.0036916;0.0399968;-0.0125577
4.00198;0.00597423;0.040852;0.00476103
4.01196;0.0158172;0.040956;0.023134
4.02194;0.0255865;0.0416273;0.0417149
4.03192;0.0351569;0.040908;0.0626923
4.0419;0.044749;0.0412837;0.0820559
4.05188;0.0544248;0.0411238;0.101132
4.06186;0.0642875;0.0429622;0.118594
4.07184;0.074077;0.0423707;0.138182
4.08182;0.0837961;0.0425785;0.157466
4.0918;0.0934047;0.0436256;0.175391
4.10178;0.103102;0.0426504;0.194068
4.11176;0.112896;0.0426264;0.214884
4.12174;0.122499;0.0427304;0.234328
4.13172;0.12711;0.0415794;0.253452
4.1417;0.12711;0.0433618;0.270562
4.15168;0.12711;0.0426664;0.28897
4.16166;0.12711;0.0434337;0.308206
4.17164;0.12711;0.0434577;0.327889
4.18162;0.12711;0.0435936;0.346932
4.1916;0.12711;0.0437055;0.365911
4.20158;0.12711;0.0430421;0.385613
4.21156;0.12711;0.0415953;0.405933
4.22154;0.12711;0.0434018;0.424401
4.23152;0.12711;0.0438733;0.442151
4.2415;0.12711;0.0432978;0.460541
4.25148;0.12711;0.0429941;0.480898
4.26146;0.12711;0.0435536;0.50101
4.27144;0.12711;0.0438414;0.517785
4.28142;0.12711;0.0438733;0.53836
4.2914;0.12711;0.0436655;0.557773
4.30138;0.12711;0.0437854;0.577587
4.31136;0.12711;0.0435217;0.596663
4.32134;0.12711;0.0438334;0.615049
4.33132;0.12711;0.0438653;0.63349
4.3413;0.12711;0.0438733;0.653618
4.35128;0.12711;0.0437934;0.671691
4.36126;0.12711;0.0438733;0.689309
4.37124;0.12711;0.0438653;0.708126
4.38122;0.12711;0.0437614;0.729124
4.3912;0.12711;0.0438334;0.748964
4.40118;0.12711;0.0437295;0.746939
4.41116;0.12711;0.0436255;0.725683
4.42114;0.12711;0.0438733;0.704808
4.43112;0.12711;0.0438653;0.687203
4.4411;0.12711;0.0438014;0.669756
4.45108;0.12711;0.0436096;0.651783
4.46106;0.12711;0.0437455;0.63128
4.47104;0.12711;0.0437854;0.61248
4.48102;0.12711;0.0435137;0.594236
4.491;0.12711;0.0432739;0.574792
4.50098;0.12711;0.0431859;0.555298
4.51096;0.12711;0.0428582;0.534672
4.52094;0.12711;0.0433858;0.515243
4.53092;0.12711;0.0432898;0.497574
4.5409;0.12711;0.0426664;0.478293
4.55088;0.12711;0.0421069;0.457953
4.56086;0.12711;0.0419471;0.439197
4.57084;0.12711;0.043154;0.421638
4.58082;0.12711;0.0424266;0.403297
4.5908;0.12711;0.0416753;0.382397
4.60078;0.12711;0.0422987;0.363162
4.61076;0.12711;0.0414035;0.344169
4.62074;0.12711;0.042027;0.325508
4.63072;0.12711;0.0415554;0.304403
4.6407;0.12711;0.0422428;0.286012
4.65068;0.12711;0.0429142;0.267319
4.66066;0.126983;0.0414835;0.250209
4.67064;0.120806;0.0402526;0.231276
4.68062;0.111202;0.0423227;0.212025
4.6906;0.101246;0.0415314;0.190968
4.70058;0.0916989;0.040884;0.173155
4.71056;0.0820254;0.0401647;0.15376
4.72054;0.0723274;0.0402525;0.135145
4.73052;0.0624628;0.0404364;0.115383
4.7405;0.0526516;0.0405963;0.0980962
4.75048;0.0429601;0.0417312;0.0787491
4.76046;0.0334274;0.0412197;0.0589216
4.77044;0.0238611;0.0410039;0.0388552
4.78042;0.014046;0.0411399;0.0201305
4.7904;0.00410754;0.0400128;0.00166156
4.80038;-0.00552845;0.0402526;-0.0159446
4.81036;-0.0154411;0.0401087;-0.0346693
4.82034;-0.0253298;0.0410119;-0.0554864
4.83032;-0.03492;0.0400368;-0.0736684
4.8403;-0.0443769;0.0399568;-0.0936707
4.85028;-0.0540388;0.0400288;-0.112523
4.86026;-0.0638318;0.0404364;-0.133468
4.87024;-0.0736053;0.0400448;-0.150995
4.88022;-0.0832905;0.0403964;-0.168602
4.8902;-0.0931579;0.0399009;-0.188684
4.90018;-0.0934086;0.0399249;-0.18969
4.91016;-0.0835157;0.0401247;-0.169401
4.92014;-0.0737526;0.0400208;-0.151555
4.93012;-0.063987;0.0399488;-0.134155
4.9401;-0.0543073;0.0401167;-0.11345
4.95008;-0.0446177;0.0403165;-0.0941981
4.96006;-0.0351468;0.0398929;-0.0753301
4.97004;-0.0255149;0.0401646;-0.0568606
4.98002;-0.0156062;0.040956;-0.0358515
4.99;-0.00568967;0.0404764;-0.0162162
4.99998;0.00395031;0.0407161;0.00138996
5.00996;0.0138032;0.0403724;0.019092
5.01994;0.0237079;0.0412277;0.0387912
5.02992;0.033312;0.0410759;0.0583143
5.0399;0.0428346;0.0414036;0.0785891
5.04988;0.0523631;0.0400767;0.0976328
5.05986;0.062186;0.040884;0.115303
5.06984;0.0721485;0.0404763;0.134922
5.07982;0.0818201;0.040908;0.1532
5.0898;0.0914979;0.0404844;0.171749
5.09978;0.101072;0.040828;0.190489
5.10976;0.111016;0.0411957;0.209181
5.11974;0.120539;0.0429222;0.230685
5.12972;0.126915;0.0433378;0.249905
5.1397;0.12711;0.0436975;0.266249
5.14968;0.12711;0.0436415;0.285056
5.15966;0.12711;0.0423547;0.303891
5.16964;0.12711;0.0426345;0.324869
5.17962;0.12711;0.0429782;0.343514
5.1896;0.12711;0.0432579;0.362429
5.19958;0.12711;0.0428583;0.381795
5.20956;0.12711;0.043146;0.402164
5.21954;0.12711;0.0432259;0.420377
5.22952;0.12711;0.0435856;0.438557
5.2395;0.12711;0.0430341;0.456018
5.24948;0.12711;0.0429702;0.476215
5.25946;0.12711;0.0419551;0.495963
5.26944;0.12711;0.0429222;0.514064
5.27942;0.12711;0.04325;0.533442
5.2894;0.12711;0.0434817;0.552756
5.29938;0.12711;0.0435216;0.574553
5.30936;0.12711;0.0436336;0.593403
5.31934;0.12711;0.0436815;0.612045
5.32932;0.12711;0.0435617;0.629958
5.3393;0.12711;0.0435696;0.650742
5.34928;0.12711;0.0438094;0.668289
5.35926;0.12711;0.0437454;0.686514
5.36924;0.12711;0.0438174;0.703037
5.37922;0.12711;0.0438733;0.724425
5.3892;0.12711;0.0438733;0.745191
5.39918;0.12711;0.0437774;0.749912
5.40916;0.12711;0.0430261;0.730479
5.41914;0.12711;0.0435536;0.708274
5.42912;0.12711;0.0438014;0.690857
5.4391;0.12711;0.0438733;0.673335
5.44908;0.12711;0.043106;0.654534
5.45906;0.12711;0.0433778;0.635404
5.46904;0.12711;0.0428503;0.61641
5.47902;0.12711;0.0437614;0.598051
5.489;0.12711;0.0437135;0.579586
5.49898;0.12711;0.0432419;0.558954
5.50896;0.12711;0.0433938;0.538874
5.51894;0.12711;0.0435456;0.518153
5.52892;0.12711;0.0432579;0.501505
5.5389;0.12711;0.0422748;0.482732
