t;vds;corrente;vg
0;-0.00183067;0.0181269;0
2e-05;-0.0019651;0.0144692;-0.000208088
4e-05;-0.00195225;0.0126201;-0.0489648
6e-05;-0.00189097;0.0167351;-0.00726711
8e-05;-0.00164582;0.0170507;-0.000336143
0.0001;-0.00240893;0.00743286;-0.299008
0.00012;-0.0019829;0.0128345;-0.394794
0.00014;-0.00177433;0.0165934;-0.39918
0.00016;-0.00196412;0.0193206;-0.399372
0.00018;-0.0019315;0.018572;-0.399212
0.0002;-0.0018969;0.0171518;-0.399196
0.00022;-0.00172787;0.0155819;-0.399324
0.00024;-0.000535758;0.0179894;-0.398844
0.00026;-0.00056047;0.0191021;-0.39934
0.00028;-0.000472495;0.0208703;-0.399372
0.0003;0.000381554;0.0243783;-0.399148
0.00032;0.00225275;0.0242731;-0.399164
0.00034;0.00421884;0.0306742;-0.399196
0.00036;0.00622744;0.0387342;-0.399132
0.00038;0.00816783;0.0448157;-0.39926
0.0004;0.0100627;0.0469561;-0.399004
0.00042;0.0120545;0.0505491;-0.399372
0.00044;0.0138535;0.057011;-0.399212
0.00046;0.0158977;0.0637964;-0.399308
0.00048;0.0176443;0.0682674;-0.399372
0.0005;0.0195076;0.0732119;-0.399308
0.00052;0.0216674;0.0777517;-0.399324
0.00054;0.023599;0.0831008;-0.399196
0.00056;0.0255294;0.0871955;-0.398811
0.00058;0.0273532;0.0939648;-0.399356
0.0006;0.0292362;0.0988528;-0.399148
0.00062;0.0311292;0.105375;-0.399372
0.00064;0.0332377;0.108195;-0.398971
0.00066;0.0351208;0.114293;-0.398155
0.00068;0.0370504;0.121091;-0.399244
0.0007;0.039127;0.124494;-0.398971
0.00072;0.0409963;0.130838;-0.399244
0.00074;0.0428458;0.131631;-0.399308
0.00076;0.0446832;0.138594;-0.398892
0.00078;0.046602;0.148779;-0.399292
0.0008;0.0468958;0.147553;-0.39934
0.00082;0.0449215;0.139748;-0.399372
0.00084;0.0430732;0.136377;-0.398971
0.00086;0.0412887;0.130174;-0.39918
0.00088;0.0392962;0.12491;-0.399116
0.0009;0.0373912;0.123094;-0.399276
0.00092;0.0353027;0.117283;-0.3987
0.00094;0.0334255;0.106221;-0.398795
0.00096;0.0314238;0.104388;-0.398763
0.00098;0.0296466;0.0984318;-0.399083
0.001;0.0276637;0.0942116;-0.398667
0.00102;0.025656;0.090214;-0.398811
0.00104;0.0237799;0.084088;-0.398443
0.00106;0.0220273;0.0808187;-0.399228
0.00108;0.0199871;0.0769749;-0.398748
0.0011;0.018187;0.0675189;-0.398859
0.00112;0.0160924;0.0659086;-0.398315
0.00114;0.0141709;0.0604947;-0.399116
0.00116;0.0122038;0.0530538;-0.398651
0.00118;0.0103612;0.0513786;-0.399196
0.0012;0.00835762;0.0443382;-0.399244
0.00122;0.00641624;0.0374516;-0.398843
0.00124;0.00445015;0.0315563;-0.398539
0.00126;0.00243463;0.0296303;-0.398331
0.00128;0.000743339;0.0227032;-0.399068
0.0013;-0.00129788;0.0210443;-0.398827
0.00132;-0.0033213;0.0188188;-0.399148
0.00134;-0.00511441;0.00739644;-0.399036
0.00136;-0.00715859;0.00339881;-0.399115
0.00138;-0.00910687;-0.00266645;-0.399228
0.0014;-0.0110077;-0.00772823;-0.399148
0.00142;-0.0130588;-0.01209;-0.398811
0.00144;-0.014927;-0.0193489;-0.399052
0.00146;-0.0168654;-0.021287;-0.398987
0.00148;-0.0187198;-0.0277124;-0.399148
0.0015;-0.0206978;-0.0322482;-0.39918
0.00152;-0.0225996;-0.0343724;-0.399372
0.00154;-0.0245806;-0.0408342;-0.399356
0.00156;-0.0265961;-0.0455561;-0.399356
0.00158;-0.0285483;-0.0492341;-0.399372
0.0016;-0.030455;-0.0547329;-0.39894
0.00162;-0.0322887;-0.059026;-0.398764
0.00164;-0.0341994;-0.0640918;-0.399292
0.00166;-0.0361703;-0.0673368;-0.399132
0.00168;-0.038179;-0.0714194;-0.39934
0.0017;-0.0400768;-0.0730702;-0.39926
0.00172;-0.0419699;-0.0782413;-0.39934
0.00174;-0.0438637;-0.0819476;-0.399308
0.00176;-0.0458626;-0.0863701;-0.399372
0.00178;-0.0475646;-0.097562;-0.39918
0.0018;-0.0482191;-0.0936411;-0.399132
0.00182;-0.0464556;-0.0906146;-0.399148
0.00184;-0.0444539;-0.0862043;-0.399148
0.00186;-0.0425828;-0.0848285;-0.398956
0.00188;-0.0405998;-0.0769344;-0.398923
0.0019;-0.0388167;-0.0706223;-0.399308
0.00192;-0.0365885;-0.0641768;-0.399276
0.00194;-0.0347183;-0.0674097;-0.399212
0.00196;-0.0328867;-0.0569786;-0.399244
0.00198;-0.0309621;-0.0548098;-0.399116
0.002;-0.0290761;-0.0490075;-0.399324
0.00202;-0.0271228;-0.0480284;-0.398876
0.00204;-0.0252023;-0.0429827;-0.399228
0.00206;-0.0233162;-0.039066;-0.39894
0.00208;-0.0212285;-0.0330979;-0.399276
0.0021;-0.0194008;-0.0211211;-0.399324
0.00212;-0.0173102;-0.0251107;-0.399324
0.00214;-0.0155438;-0.0132715;-0.399212
0.00216;-0.0135273;-0.0150073;-0.398987
0.00218;-0.011668;-0.0083392;-0.399308
0.0022;-0.00959024;-0.00406643;-0.3991
0.00222;-0.00767458;0.00490399;-0.398587
0.00224;-0.0056818;0.0101559;-0.398988
0.00226;-0.0037078;0.00986867;-0.398107
0.00228;-0.00194237;0.0124906;-0.398972
0.0023;0.000100825;0.0209552;-0.399212
0.00232;0.00188504;0.0273563;-0.399372
0.00234;0.00401324;0.0305771;-0.399356
0.00236;0.00586071;0.0341904;-0.39926
0.00238;0.00775761;0.0415261;-0.399372
0.0024;0.00968019;0.0436585;-0.398892
0.00242;0.0114446;0.0524104;-0.398827
0.00244;0.013557;0.0554532;-0.399132
0.00246;0.0154925;0.0631085;-0.399276
0.00248;0.0173676;0.0692952;-0.399372
0.0025;0.0191943;0.0712131;-0.399372
0.00252;0.0213758;0.076372;-0.39926
0.00254;0.02316;0.0828539;-0.399244
0.00256;0.0251964;0.0848568;-0.399372
0.00258;0.0269836;0.0909059;-0.399083
0.0026;0.0288587;0.0931597;-0.39934
0.00262;0.030721;0.10697;-0.399292
0.00264;0.0328027;0.104878;-0.398139
0.00266;0.0346621;0.117028;-0.39934
0.00268;0.0366766;0.12239;-0.398971
0.0027;0.038617;0.12105;-0.399228
0.00272;0.040579;0.12591;-0.399244
0.00274;0.0424405;0.137211;-0.399324
0.00276;0.0444063;0.130793;-0.399276
0.00278;0.0462688;0.142588;-0.399228
0.0028;0.0470143;0.15138;-0.399324
0.00282;0.0453;0.139477;-0.399244
0.00284;0.0435387;0.140431;-0.398972
0.00286;0.0415527;0.132918;-0.399372
0.00288;0.039653;0.12432;-0.399372
0.0029;0.0377856;0.118639;-0.39934
0.00292;0.0358127;0.113136;-0.399324
0.00294;0.0336934;0.106759;-0.398779
0.00296;0.0317807;0.105816;-0.398475
0.00298;0.030034;0.0997266;-0.399084
0.003;0.0280373;0.0935804;-0.398106
0.00302;0.0262481;0.0899186;-0.39902
0.00304;0.0241624;0.0800055;-0.398843
0.00306;0.0223535;0.0764894;-0.399212
0.00308;0.0204438;0.0755547;-0.399196
0.0031;0.0184945;0.0660947;-0.3991
0.00312;0.0164661;0.06306;-0.3991
0.00314;0.0145633;0.0554127;-0.398988
0.00316;0.0125389;0.0526329;-0.397546
0.00318;0.0105837;0.0500272;-0.398363
0.0032;0.00862055;0.042914;-0.398827
0.00322;0.00682152;0.0376458;-0.39934
0.00324;0.00488113;0.0344008;-0.399356
0.00326;0.00297237;0.027858;-0.399035
0.00328;0.00129096;0.0215581;-0.399308
0.0033;-0.000903473;0.0199032;-0.398764
0.00332;-0.00271339;0.0173501;-0.399132
0.00334;-0.00484357;0.0089704;-0.399292
0.00336;-0.00674046;0.00640917;-0.399276
0.00338;-0.00867986;-0.00126241;-0.399372
0.0034;-0.0106074;-0.00816927;-0.399148
0.00342;-0.0125646;-0.0120941;-0.399356
0.00344;-0.0144723;-0.0150559;-0.399212
0.00346;-0.0163376;-0.0176171;-0.39934
0.00348;-0.0184243;-0.0229662;-0.39934
0.0035;-0.0204536;-0.0268748;-0.399372
0.00352;-0.022308;-0.0359788;-0.399356
0.00354;-0.0242455;-0.0335875;-0.39934
0.00356;-0.026085;-0.0475954;-0.398988
0.00358;-0.0280856;-0.0451515;-0.39894
0.0036;-0.0298313;-0.0544821;-0.399372
0.00362;-0.0318913;-0.0541341;-0.399372
0.00364;-0.0339434;-0.0621941;-0.39918
0.00366;-0.0358294;-0.0644357;-0.399372
0.00368;-0.0376058;-0.066649;-0.399356
0.0037;-0.0397882;-0.0741466;-0.399324
0.00372;-0.041623;-0.07865;-0.399308
0.00374;-0.0437935;-0.0806488;-0.399372
0.00376;-0.0455552;-0.0851764;-0.399372
0.00378;-0.0473867;-0.0885713;-0.399372
0.0038;-0.0485116;-0.0956683;-0.399292
0.00382;-0.0469036;-0.0910961;-0.399372
0.00384;-0.0449146;-0.0851319;-0.399067
0.00386;-0.0428241;-0.0831737;-0.39934
0.00388;-0.0411247;-0.076643;-0.399372
0.0039;-0.0391291;-0.0726454;-0.399372
0.00392;-0.0371065;-0.0659773;-0.399228
0.00394;-0.0353283;-0.063942;-0.399212
0.00396;-0.0332397;-0.0577756;-0.399372
0.00398;-0.0312478;-0.0560803;-0.399228
0.004;-0.029432;-0.0531023;-0.399372
0.00402;-0.0275311;-0.0456087;-0.399356
0.00404;-0.025486;-0.0386978;-0.399356
0.00406;-0.0235683;-0.0358088;-0.398683
0.00408;-0.0217614;-0.031354;-0.39918
0.0041;-0.0197054;-0.0267575;-0.399276
0.00412;-0.0178391;-0.0228489;-0.399196
0.00414;-0.0159778;-0.0205547;-0.399308
0.00416;-0.0140671;-0.0118918;-0.399372
0.00418;-0.0119715;-0.010075;-0.399372
0.0042;-0.0101112;-0.00261385;-0.399356
0.00422;-0.00804229;0.00256934;-0.399244
0.00424;-0.00623733;0.00727505;-0.399308
0.00426;-0.00420105;0.011127;-0.399308
0.00428;-0.00227054;0.0161807;-0.398636
0.0043;-0.000393416;0.0220315;-0.399308
0.00432;0.00157465;0.0247141;-0.399052
0.00434;0.00351406;0.0313176;-0.399164
0.00436;0.00544852;0.0358978;-0.39934
0.00438;0.00736914;0.0393695;-0.399372
0.0044;0.00899915;0.044233;-0.399212
0.00442;0.0111708;0.0512451;-0.399324
0.00444;0.0131883;0.0534058;-0.399324
0.00446;0.0149419;0.0610086;-0.398827
0.00448;0.0169771;0.0644519;-0.399164
0.0045;0.0189017;0.0664588;-0.398539
0.00452;0.0208896;0.0761373;-0.399372
0.00454;0.0227272;0.0803656;-0.399372
0.00456;0.0246745;0.0871793;-0.399292
0.00458;0.0267464;0.090214;-0.399228
0.0046;0.0284643;0.0980719;-0.399372
0.00462;0.0304057;0.101256;-0.399324
0.00464;0.0323085;0.107953;-0.398811
0.00466;0.0344001;0.111307;-0.399372
0.00468;0.036287;0.117239;-0.399148
0.0047;0.0382423;0.121426;-0.399212
0.00472;0.0401964;0.1307;-0.398667
0.00474;0.0422368;0.133185;-0.398555
0.00476;0.0439397;0.136422;-0.398956
0.00478;0.0459595;0.142187;-0.398795
0.0048;0.0473276;0.146954;-0.398827
0.00482;0.0457724;0.14133;-0.39902
0.00484;0.0439172;0.137971;-0.399148
0.00486;0.0419767;0.130122;-0.398443
0.00488;0.0400216;0.125983;-0.399228
0.0049;0.0381503;0.119124;-0.398235
0.00492;0.0361112;0.113783;-0.398796
0.00494;0.0341905;0.113079;-0.39934
0.00496;0.0323025;0.108288;-0.399372
0.00498;0.0303987;0.101993;-0.398956
0.005;0.0283062;0.0941186;-0.398875
0.00502;0.0264251;0.0892429;-0.399084
0.00504;0.0245618;0.0859169;-0.399164
0.00506;0.0227459;0.0801633;-0.399308
0.00508;0.0206958;0.078913;-0.399372
0.0051;0.018876;0.0708934;-0.399356
0.00512;0.0167705;0.0648767;-0.399372
0.00514;0.015015;0.0554167;-0.399132
0.00516;0.0130054;0.0583866;-0.399324
0.00518;0.0109761;0.0505532;-0.399084
0.0052;0.00905251;0.0411538;-0.398763
0.00522;0.00714772;0.0331869;-0.399164
0.00524;0.00524983;0.0342996;-0.39926
0.00526;0.00340433;0.0317424;-0.399132
0.00528;0.00135323;0.0272956;-0.399212
0.0053;-0.000529826;0.0169616;-0.398651
0.00532;-0.00240794;0.0161888;-0.39894
0.00534;-0.00445213;0.00854961;-0.399212
0.00536;-0.00624326;0.00418782;-0.399308
0.00538;-0.00828448;0.000279187;-0.399324
0.0054;-0.0101042;-0.00159016;-0.399372
0.00542;-0.0121929;-0.00873168;-0.399372
0.00544;-0.0140898;-0.0123126;-0.39934
0.00546;-0.0159679;-0.0165854;-0.399356
0.00548;-0.0179587;-0.0257904;-0.399372
0.0055;-0.0200365;-0.0253089;-0.39934
0.00552;-0.0219748;-0.0288129;-0.399115
0.00554;-0.0239389;-0.0356591;-0.398555
0.00556;-0.0256411;-0.0373585;-0.399052
0.00558;-0.0277554;-0.0484451;-0.39926
0.0056;-0.0296613;-0.0507879;-0.399244
0.00562;-0.0314198;-0.052293;-0.399356
0.00564;-0.0335045;-0.0585485;-0.399308
0.00566;-0.0353638;-0.0633716;-0.39918
0.00568;-0.0372688;-0.0694287;-0.399372
0.0057;-0.0391457;-0.0730582;-0.399228
0.00572;-0.0411742;-0.0793499;-0.399372
0.00574;-0.0431778;-0.0807823;-0.39918
0.00576;-0.0450372;-0.0869771;-0.398555
0.00578;-0.0470062;-0.0896961;-0.397995
0.0058;-0.0485284;-0.0914036;-0.398843
0.00582;-0.0471379;-0.0894371;-0.399372
0.00584;-0.0452792;-0.0859129;-0.398828
0.00586;-0.0434963;-0.0794471;-0.399228
0.00588;-0.0414914;-0.0759026;-0.399372
0.0059;-0.0395799;-0.0729327;-0.399372
0.00592;-0.0375345;-0.0685831;-0.399372
0.00594;-0.0356664;-0.0676201;-0.399324
0.00596;-0.0336598;-0.0592404;-0.399372
0.00598;-0.0317115;-0.0556069;-0.399292
0.006;-0.0297167;-0.0506624;-0.399164
0.00602;-0.0279503;-0.0454995;-0.399083
0.00604;-0.0259239;-0.0434521;-0.398891
0.00606;-0.0238392;-0.0359464;-0.399324
0.00608;-0.0221924;-0.0305731;-0.398956
0.0061;-0.0200454;-0.0305811;-0.399164
0.00612;-0.0181949;-0.0193408;-0.399228
0.00614;-0.0162348;-0.0176252;-0.399196
0.00616;-0.0142223;-0.011916;-0.399036
0.00618;-0.0122937;-0.0080236;-0.399244
0.0062;-0.0104848;-0.00252483;-0.399292
0.00622;-0.00846437;0.000712131;-0.399356
0.00624;-0.00661493;0.00521959;-0.399324
0.00626;-0.00455888;0.0112606;-0.398828
0.00628;-0.00254732;0.0163952;-0.399244
0.0063;-0.000623732;0.021546;-0.398763
0.00632;0.00126328;0.0247465;-0.39934
0.00634;0.00317797;0.0266159;-0.399292
0.00636;0.00513912;0.0367921;-0.398763
0.00638;0.00693717;0.0354892;-0.399276
0.0064;0.00886273;0.0419267;-0.399196
0.00642;0.0106449;0.0513503;-0.399324
0.00644;0.0127514;0.0563271;-0.39918
0.00646;0.014841;0.062271;-0.398908
0.00648;0.0164928;0.0633554;-0.39894
0.0065;0.0184035;0.0667946;-0.399148
0.00652;0.0205703;0.0683686;-0.399083
0.00654;0.0224652;0.0791476;-0.398683
0.00656;0.024367;0.0817656;-0.399196
0.00658;0.0263252;0.093103;-0.398908
0.0066;0.0280056;0.0936209;-0.398924
0.00662;0.0300824;0.0989943;-0.3991
0.00664;0.0321077;0.104894;-0.399308
0.00666;0.0339602;0.109122;-0.398411
0.00668;0.0358975;0.11522;-0.399212
0.0067;0.0379547;0.117692;-0.399292
0.00672;0.0397576;0.126076;-0.399244
0.00674;0.041709;0.131999;-0.399372
0.00676;0.0437184;0.135847;-0.399035
0.00678;0.0454624;0.14256;-0.399164
0.0068;0.0472198;0.147027;-0.399356
0.00682;0.0460858;0.147472;-0.399164
0.00684;0.0444034;0.136936;-0.399099
0.00686;0.0423109;0.132905;-0.39934
0.00688;0.0401362;0.129329;-0.398827
0.0069;0.0384805;0.122883;-0.39934
0.00692;0.0365055;0.116158;-0.399308
0.00694;0.034404;0.108936;-0.398859
0.00696;0.0327256;0.109195;-0.399084
0.00698;0.0307931;0.101827;-0.39926
0.007;0.0287894;0.0996903;-0.399372
0.00702;0.0270645;0.0915129;-0.399148
0.00704;0.0250134;0.0876325;-0.398988
0.00706;0.0230879;0.0802887;-0.398443
0.00708;0.0211445;0.0766309;-0.39918
0.0071;0.0193;0.0713305;-0.398892
0.00712;0.0173379;0.0651034;-0.399372
0.00714;0.0154055;0.0619797;-0.399372
0.00716;0.0133969;0.0556554;-0.399276
0.00718;0.0115593;0.048348;-0.399372
0.0072;0.00949731;0.0460902;-0.399292
0.00722;0.00745712;0.0433024;-0.399003
0.00724;0.00556417;0.0362822;-0.399084
0.00726;0.0038363;0.0285014;-0.399372
0.00728;0.00169327;0.0253332;-0.399132
0.0073;-0.000108733;0.0253008;-0.399212
0.00732;-0.0019908;0.0178316;-0.399244
0.00734;-0.0039737;0.00971087;-0.399372
0.00736;-0.00612563;0.00980392;-0.399019
0.00738;-0.00783175;0.00369823;-0.399372
0.0074;-0.00973554;-0.00996173;-0.399372
0.00742;-0.0117174;-0.00395314;-0.399228
0.00744;-0.0137428;-0.0102773;-0.399372
0.00746;-0.0155369;-0.0185518;-0.398971
0.00748;-0.0177323;-0.0240587;-0.398972
0.0075;-0.0196401;-0.0250702;-0.398683
0.00752;-0.0214707;-0.0295089;-0.399372
0.00754;-0.0234111;-0.0364076;-0.399148
0.00756;-0.0252507;-0.0402758;-0.399324
0.00758;-0.0271348;-0.0481093;-0.399244
0.0076;-0.0292472;-0.0513867;-0.398843
0.00762;-0.0311836;-0.0524832;-0.399228
0.00764;-0.0329451;-0.0641444;-0.399356
0.00766;-0.0349843;-0.0620849;-0.399372
0.00768;-0.0369227;-0.0691131;-0.399372
0.0077;-0.0389274;-0.0714194;-0.399372
0.00772;-0.0408252;-0.0827487;-0.399372
0.00774;-0.0427696;-0.0813812;-0.39934
0.00776;-0.0447436;-0.0842419;-0.399372
0.00778;-0.0466752;-0.0892712;-0.39934
0.0078;-0.048375;-0.0925649;-0.398988
0.00782;-0.0475579;-0.0900522;-0.399356
0.00784;-0.0455797;-0.0833031;-0.399356
0.00786;-0.0438668;-0.0785488;-0.39934
0.00788;-0.0417385;-0.0819396;-0.399196
0.0079;-0.0399455;-0.0711483;-0.39926
0.00792;-0.0378024;-0.0727385;-0.39902
0.00794;-0.0359224;-0.067705;-0.39918
0.00796;-0.0340848;-0.0588196;-0.399276
0.00798;-0.0320871;-0.0544335;-0.398939
0.008;-0.0302198;-0.0521676;-0.399324
0.00802;-0.0283812;-0.0453498;-0.399132
0.00804;-0.0264873;-0.0426429;-0.398795
0.00806;-0.0244293;-0.0340568;-0.399324
0.00808;-0.0223446;-0.0319204;-0.39934
0.0081;-0.0204793;-0.0282303;-0.399244
0.00812;-0.0185874;-0.0228205;-0.39926
0.00814;-0.016645;-0.0185801;-0.399212
0.00816;-0.0147135;-0.0141414;-0.399244
0.00818;-0.0126683;-0.00714153;-0.399372
0.0082;-0.0106786;-0.00657506;-0.39926
0.00822;-0.00889435;-0.0019179;-0.399084
0.00824;-0.00693915;0.00580629;-0.399244
0.00826;-0.0049948;0.0103137;-0.399164
0.00828;-0.00291701;0.0135467;-0.399132
0.0083;-0.000972666;0.0186813;-0.399372
0.00832;0.00110216;0.0212061;-0.399132
0.00834;0.00267582;0.0308644;-0.399196
0.00836;0.0046607;0.0306499;-0.399116
0.00838;0.00661196;0.0386857;-0.399036
0.0084;0.00850984;0.0464868;-0.399019
0.00842;0.0105738;0.0442249;-0.399196
0.00844;0.0123263;0.053693;-0.399308
0.00846;0.0143715;0.0590866;-0.398843
0.00848;0.0163287;0.0618543;-0.398636
0.0085;0.0182098;0.0683241;-0.398811
0.00852;0.0201769;0.072435;-0.398875
0.00854;0.0220678;0.0787714;-0.399244
0.00856;0.024021;0.0814621;-0.399196
0.00858;0.0257627;0.0918244;-0.399308
0.0086;0.0277901;0.0914926;-0.399324
0.00862;0.029683;0.101204;-0.399132
0.00864;0.0315186;0.106188;-0.399228
0.00866;0.0337437;0.102927;-0.39918
0.00868;0.0355604;0.114524;-0.398683
0.0087;0.0375544;0.118554;-0.399052
0.00872;0.0394363;0.123652;-0.398844
0.00874;0.0413265;0.131242;-0.398411
0.00876;0.0431927;0.135511;-0.399324
0.00878;0.0453061;0.14419;-0.39934
0.0088;0.0470389;0.143806;-0.39918
0.00882;0.046523;0.141164;-0.399372
0.00884;0.0446288;0.141479;-0.399051
0.00886;0.0427905;0.1331;-0.399324
0.00888;0.0407956;0.128317;-0.399132
0.0089;0.0389897;0.12245;-0.399292
0.00892;0.0370917;0.120763;-0.399324
0.00894;0.0349645;0.107678;-0.398923
0.00896;0.0329777;0.107597;-0.399148
0.00898;0.0312281;0.0982781;-0.399084
0.009;0.0289891;0.100127;-0.398907
0.00902;0.0272711;0.0928036;-0.398315
0.00904;0.0255463;0.0833679;-0.398956
0.00906;0.0234981;0.0830321;-0.399148
0.00908;0.021621;0.07182;-0.399244
0.0091;0.0196005;0.0755627;-0.399356
0.00912;0.0176077;0.0666531;-0.398795
0.00914;0.0157593;0.0618907;-0.398812
0.00916;0.0137547;0.0551214;-0.399067
0.00918;0.0119537;0.0512815;-0.398299
0.0092;0.0098759;0.0490156;-0.398299
0.00922;0.00794246;0.0438851;-0.39894
0.00924;0.00600404;0.0346799;-0.39926
0.00926;0.00410022;0.030921;-0.399308
0.00928;0.00221124;0.0263933;-0.39918
0.0093;0.000430978;0.0227841;-0.399292
0.00932;-0.00174171;0.0187177;-0.399324
0.00934;-0.00374338;0.0125553;-0.39926
0.00936;-0.00546038;0.00887735;-0.398635
0.00938;-0.00760736;0.00297396;-0.398924
0.0094;-0.00945877;9.30626e-05;-0.398908
0.00942;-0.0114051;-0.0049485;-0.399052
0.00944;-0.0133445;-0.0139472;-0.398843
0.00946;-0.0152275;-0.016646;-0.399148
0.00948;-0.0171966;-0.0210119;-0.399148
0.0095;-0.0191706;-0.0263731;-0.399356
0.00952;-0.0211001;-0.0298609;-0.399356
0.00954;-0.023085;-0.034688;-0.399292
0.00956;-0.0250214;-0.0386654;-0.399292
0.00958;-0.0270439;-0.0407452;-0.399164
0.0096;-0.0289289;-0.0489752;-0.399308
0.00962;-0.0308377;-0.0516942;-0.399196
0.00964;-0.0327266;-0.0595965;-0.398924
0.00966;-0.0346868;-0.0583988;-0.399004
0.00968;-0.0364324;-0.0679599;-0.399004
0.0097;-0.0385607;-0.0707032;-0.399116
0.00972;-0.0403823;-0.073046;-0.399292
0.00974;-0.042389;-0.0763113;-0.399116
0.00976;-0.0443826;-0.0821904;-0.399324
0.00978;-0.0462778;-0.0905297;-0.3991
0.0098;-0.048034;-0.0953163;-0.399372
0.00982;-0.0480134;-0.0917353;-0.399372
0.00984;-0.0460048;-0.087147;-0.399132
0.00986;-0.044196;-0.0815672;-0.399372
0.00988;-0.0422307;-0.0785002;-0.399292
0.0099;-0.0403478;-0.0771529;-0.399244
0.00992;-0.0384598;-0.0702379;-0.399372
0.00994;-0.0364917;-0.0684455;-0.399212
0.00996;-0.0345038;-0.0614941;-0.399132
0.00998;-0.0326059;-0.0601144;-0.399244
0.01;-0.0306833;-0.0491411;-0.39934
0.01002;-0.0287884;-0.0494566;-0.399356
0.01004;-0.0267927;-0.0430029;-0.399148
0.01006;-0.0249788;-0.0378157;-0.399356
0.01008;-0.0230029;-0.0355054;-0.399372
0.0101;-0.0209676;-0.0326568;-0.399356
0.01012;-0.0190786;-0.028117;-0.39934
0.01014;-0.0170256;-0.0180501;-0.399372
0.01016;-0.0151109;-0.0144287;-0.399148
0.01018;-0.0132061;-0.0142466;-0.399276
0.0102;-0.01107;-0.00959352;-0.399372
0.01022;-0.00922944;-0.00355661;-0.399148
0.01024;-0.00752829;0.00251269;-0.399244
0.01026;-0.00537339;0.00769586;-0.399276
0.01028;-0.00349923;0.0137773;-0.399084
0.0103;-0.00153215;0.0181836;-0.399164
0.01032;0.000353876;0.0236702;-0.399244
0.01034;0.00224188;0.0269517;-0.39926
0.01036;0.00430583;0.0319204;-0.399132
