t;vds;corrente;vg
0.00998;0.0103919;-0.00804762;-0.00952882
0.01996;0.012411;-0.00759236;-0.00797229
0.02994;0.0143532;-0.00782833;-0.00797229
0.03992;0.0163398;-0.00730259;-0.00790838
0.0499;0.0182109;-0.00705004;-0.00797229
0.05988;0.020165;-0.00689688;-0.00797229
0.06986;0.0222186;-0.0068886;-0.00784448
0.07984;0.0241045;-0.00710388;-0.0078924
0.08982;0.0261079;-0.00806845;-0.0078924
0.0998;0.0281755;-0.00701691;-0.00797229
0.10978;0.0301531;-0.00649118;-0.00797229
0.11976;0.0322718;-0.00654085;-0.00794033
0.12974;0.0342724;-0.00647462;-0.00797229
0.13972;0.0362778;-0.00680581;-0.00797229
0.1497;0.0382564;-0.00655328;-0.00790838
0.15968;0.0402242;-0.00753855;-0.00797229
0.16966;0.0422818;-0.00702106;-0.00794033
0.17964;0.0442399;-0.00722392;-0.00797229
0.18962;0.0461612;-0.00810157;-0.00797229
0.1996;0.0481628;-0.00715769;-0.00758885
0.20958;0.0492444;-0.00763376;-0.00797229
0.21956;0.0474867;-0.0082092;-0.00797229
0.22954;0.0455909;-0.00804774;-0.00797229
0.23952;0.0435825;-0.00745161;-0.00797229
0.2495;0.0415889;-0.00752199;-0.00797229
0.25948;0.0396046;-0.00772069;-0.00797229
0.26946;0.0376268;-0.00780349;-0.00797229
0.27944;0.0355878;-0.00738952;-0.00786045
0.28942;0.0335716;-0.00753853;-0.00797229
0.2994;0.0315544;-0.00704177;-0.00795631
0.30938;0.0294909;-0.00792769;-0.00787643
0.31936;0.0274443;-0.00690103;-0.00797229
0.32934;0.0254694;-0.00753855;-0.00797229
0.33932;0.0234719;-0.00743506;-0.00797229
0.3493;0.0215544;-0.0076379;-0.00797229
0.35928;0.0194308;-0.00800635;-0.00795631
0.36926;0.0175734;-0.00798565;-0.00797229
0.37924;0.0156598;-0.00781178;-0.00797229
0.38922;0.0137156;-0.00791941;-0.00797229
0.3992;0.0117301;-0.0082092;-0.00797229
0.40918;0.00968231;-0.00753027;-0.00797229
0.41916;0.00760689;-0.00742677;-0.00792436
0.42914;0.00568243;-0.00705832;-0.00790838
0.43912;0.00357547;-0.00695483;-0.00795631
0.4491;0.00152572;-0.00796495;-0.00797229
0.45908;-0.000393766;-0.00762549;-0.00797229
0.46906;-0.00233397;-0.00756338;-0.00784448
0.47904;-0.00441628;-0.00787388;-0.00797229
0.48902;-0.00643153;-0.00823404;-0.00792436
0.499;-0.0084684;-0.00777452;-0.0078924
0.50898;-0.0104738;-0.00738537;-0.00797229
0.51896;-0.0125452;-0.00775796;-0.00797229
0.52894;-0.0145397;-0.00743504;-0.00797229
0.53892;-0.0165056;-0.00663193;-0.00797229
0.5489;-0.018429;-0.00710387;-0.00797229
0.55888;-0.0204373;-0.0081264;-0.00797229
0.56886;-0.0223706;-0.00795253;-0.00797229
0.57884;-0.0243049;-0.00724462;-0.00797229
0.58882;-0.0262984;-0.0073895;-0.00797229
0.5988;-0.0282712;-0.00754268;-0.00792436
0.60878;-0.030309;-0.00726531;-0.00790838
0.61876;-0.0323321;-0.00733984;-0.00797229
0.62874;-0.0343128;-0.00772897;-0.00766873
0.63872;-0.0363459;-0.00817194;-0.00781252
0.6487;-0.0383471;-0.00819265;-0.00797229
0.65868;-0.0403012;-0.0077;-0.0078285
0.66866;-0.042355;-0.00714113;-0.00797229
0.67864;-0.0444027;-0.00695483;-0.0078924
0.68862;-0.0463568;-0.00803118;-0.00797229
0.6986;-0.0484024;-0.00785317;-0.00797229
0.70858;-0.0497988;-0.00744334;-0.00795631
0.71856;-0.0481233;-0.00806431;-0.00797229
0.72854;-0.046116;-0.00774139;-0.00770069
0.73852;-0.0441669;-0.00805188;-0.00797229
0.7485;-0.0420991;-0.0082506;-0.00797229
0.75848;-0.0400139;-0.00753026;-0.00795631
0.76846;-0.0380553;-0.00760064;-0.00790838
0.77844;-0.0360408;-0.00722393;-0.00797229
0.78842;-0.0340601;-0.00730257;-0.00797229
0.7984;-0.0320154;-0.00716182;-0.00797229
0.80838;-0.0300625;-0.00753027;-0.00797229
0.81836;-0.0281044;-0.00784075;-0.00797229
0.82834;-0.0260792;-0.0081678;-0.00795631
0.83832;-0.0240503;-0.00782006;-0.00797229
0.8483;-0.0220736;-0.00784903;-0.00797229
0.85828;-0.020166;-0.00748886;-0.0078924
0.86826;-0.0181891;-0.00760063;-0.00797229
0.87824;-0.0162628;-0.00694241;-0.00797229
0.88822;-0.0142663;-0.00735226;-0.00797229
0.8982;-0.0123183;-0.00675198;-0.00797229
0.90818;-0.0101758;-0.00709973;-0.0078924
0.91816;-0.00819901;-0.00768758;-0.00794033
0.92814;-0.00618973;-0.00751786;-0.00797229
0.93812;-0.00411233;-0.00709973;-0.00797229
0.9481;-0.00206851;-0.00717009;-0.00797229
0.95808;-7.59896e-05;-0.00678511;-0.00795631
0.96806;0.00185237;-0.0077828;-0.00778057
0.97804;0.00387053;-0.00731501;-0.00797229
0.98802;0.00591732;-0.00740192;-0.00797229
0.998;0.00791476;-0.00649117;-0.00794033
1.00798;0.0100217;-0.0066816;-0.00757288
1.01796;0.0120182;-0.00703348;-0.00747702
1.02794;0.0139299;-0.00688033;-0.00770069
1.03792;0.0158927;-0.00721978;-0.00770069
1.0479;0.0178181;-0.00712456;-0.00797229
1.05788;0.0197653;-0.00786974;-0.00784448
1.06786;0.0218347;-0.00705004;-0.00797229
1.07784;0.0237797;-0.00702107;-0.00794033
1.08782;0.0257172;-0.00764205;-0.00797229
1.0978;0.0277846;-0.00643322;-0.00778057
1.10778;0.0298224;-0.00647463;-0.00786045
1.11776;0.0318762;-0.00735225;-0.00797229
1.12774;0.0338204;-0.00680995;-0.00797229
1.13772;0.0358652;-0.00628005;-0.00787643
1.1477;0.0379033;-0.00742678;-0.00786045
1.15768;0.0398936;-0.00632559;-0.00786045
1.16766;0.0418536;-0.00714527;-0.00797229
1.17764;0.04383;-0.00777037;-0.00797229
1.18762;0.0458108;-0.0072736;-0.00797229
1.1976;0.0477197;-0.00742263;-0.00797229
1.20758;0.0492875;-0.00728188;-0.00784448
1.21756;0.0478875;-0.00733569;-0.00778057
1.22754;0.0458999;-0.00789042;-0.00797229
1.23752;0.0439753;-0.0082506;-0.00797229
1.2475;0.041962;-0.00711215;-0.00797229
1.25748;0.0400061;-0.00787387;-0.0078924
1.26746;0.0380948;-0.00721151;-0.00797229
1.27744;0.036028;-0.00714527;-0.00797229
1.28742;0.0339664;-0.00811812;-0.0078924
1.2974;0.0319591;-0.00813054;-0.00797229
1.30738;0.0299026;-0.00794839;-0.00797229
1.31736;0.0279574;-0.00694655;-0.00797229
1.32734;0.0259184;-0.00732328;-0.00795631
1.33732;0.0239387;-0.00786145;-0.00797229
1.3473;0.0219236;-0.00821748;-0.00795631
1.35728;0.0199094;-0.00803119;-0.00797229
1.36726;0.0180105;-0.00782419;-0.00795631
1.37724;0.0160762;-0.00739366;-0.00787643
1.38722;0.014061;-0.00801462;-0.00784448
1.3972;0.0121495;-0.00787388;-0.00792436
1.40718;0.0101304;-0.00814296;-0.00797229
1.41716;0.00801644;-0.00807672;-0.00797229
1.42714;0.00601701;-0.00813055;-0.00770069
1.43712;0.003987;-0.00801877;-0.00797229
1.4471;0.00191258;-0.00759237;-0.00797229
1.45708;4.73703e-05;-0.00758408;-0.00797229
1.46706;-0.00194514;-0.00733156;-0.00797229
1.47704;-0.00393468;-0.00773312;-0.00797229
1.48702;-0.00598049;-0.00770414;-0.00797229
1.497;-0.00806278;-0.00803533;-0.00797229
1.50698;-0.0100849;-0.00780764;-0.00795631
1.51696;-0.0121761;-0.0080643;-0.00797229
1.52694;-0.0141677;-0.00809328;-0.00797229
1.53692;-0.0161177;-0.00809743;-0.00794033
1.5469;-0.0180204;-0.00800635;-0.00797229
1.55688;-0.019935;-0.00819264;-0.00797229
1.56686;-0.0219532;-0.00806845;-0.00797229
1.57684;-0.023913;-0.00814297;-0.00797229
1.58682;-0.0258455;-0.0081057;-0.00797229
1.5968;-0.0278843;-0.00798151;-0.00795631
1.60678;-0.0298876;-0.00792354;-0.00797229
1.61676;-0.0318841;-0.00782419;-0.00797229
1.62674;-0.03393;-0.00700038;-0.00797229
1.63672;-0.0359501;-0.00790699;-0.00787643
1.6467;-0.0379565;-0.0081885;-0.00781252
1.65668;-0.0399055;-0.00815124;-0.00795631
1.66666;-0.0419818;-0.0081885;-0.00797229
1.67664;-0.0440117;-0.00817608;-0.00795631
1.68662;-0.0459806;-0.00815952;-0.00790838
1.6966;-0.0480286;-0.00810984;-0.00797229
1.70658;-0.0497673;-0.00772484;-0.00797229
1.71656;-0.0485959;-0.00821334;-0.00781252
1.72654;-0.0465848;-0.00820092;-0.00797229
1.73652;-0.0445627;-0.00754682;-0.00787643
1.7465;-0.0425503;-0.00799393;-0.00779655
1.75648;-0.040474;-0.00801048;-0.00797229
1.76646;-0.038455;-0.00787386;-0.00797229
1.77644;-0.0364741;-0.00748473;-0.00797229
1.78642;-0.0344816;-0.00804775;-0.00797229
1.7964;-0.0324951;-0.00796494;-0.00795631
1.80638;-0.0304374;-0.00758822;-0.00795631
1.81636;-0.0284635;-0.00714113;-0.00797229
1.82634;-0.0263832;-0.00716596;-0.00794033
1.83632;-0.0244629;-0.00711215;-0.0078924
1.8463;-0.0224585;-0.00769586;-0.00779655
1.85628;-0.0204915;-0.00736881;-0.00792436
1.86626;-0.0185652;-0.00695483;-0.00794033
1.87624;-0.0166526;-0.0077207;-0.00790838
1.88622;-0.0147342;-0.00687619;-0.00797229
1.8962;-0.0127248;-0.00709972;-0.00781252
1.90618;-0.0106207;-0.0077414;-0.00797229
1.91616;-0.00860361;-0.00773725;-0.00797229
1.92614;-0.00657461;-0.00745575;-0.00797229
1.93612;-0.00447844;-0.00786146;-0.00797229
1.9461;-0.00246622;-0.00801877;-0.00795631
1.95608;-0.000534887;-0.00729843;-0.00797229
1.96606;0.00137965;-0.00738125;-0.00778057
1.97604;0.0034669;-0.00775383;-0.00781252
1.98602;0.00549198;-0.0075551;-0.00797229
1.996;0.00747265;-0.00777866;-0.00792436
2.00598;0.00957371;-0.00748061;-0.00797229
2.01596;0.011579;-0.00786559;-0.00797229
2.02594;0.013541;-0.00743918;-0.00797229
2.03592;0.0155532;-0.0073564;-0.00795631
2.0459;0.0174657;-0.00748059;-0.00794033
2.05588;0.0193449;-0.00810156;-0.00792436
2.06586;0.0214152;-0.00771655;-0.00797229
2.07584;0.0234176;-0.00781177;-0.00797229
2.08582;0.0253323;-0.00750128;-0.00797229
2.0958;0.0273819;-0.0065243;-0.00797229
2.10578;0.0293518;-0.00653257;-0.00792436
2.11576;0.0314194;-0.0064622;-0.00784448
2.12574;0.0333822;-0.00754269;-0.00784448
2.13572;0.0354773;-0.00799393;-0.00797229
2.1457;0.0375124;-0.00753025;-0.00797229
2.15568;0.0394408;-0.00709559;-0.00797229
2.16566;0.0414451;-0.00741848;-0.00792436
2.17564;0.0434166;-0.00782419;-0.00794033
2.18562;0.0454311;-0.00774968;-0.00765276
2.1956;0.0473386;-0.00741849;-0.0078285
2.20558;0.0491504;-0.00713699;-0.00774862
2.21556;0.0482376;-0.0071908;-0.00797229
2.22554;0.0463342;-0.0075137;-0.00795631
2.23552;0.04439;-0.00652843;-0.00797229
2.2455;0.0424151;-0.00735226;-0.00797229
2.25548;0.0403693;-0.00759237;-0.00797229
2.26546;0.0384382;-0.00730672;-0.00797229
2.27544;0.0364563;-0.00768758;-0.00797229
2.28542;0.0343306;-0.00821334;-0.00797229
2.2954;0.0323599;-0.00810156;-0.00797229
2.30538;0.0303043;-0.00819264;-0.00797229
2.31536;0.0282711;-0.00825888;-0.00797229
2.32534;0.0262342;-0.00824232;-0.00797229
2.33532;0.0242872;-0.00795667;-0.00797229
2.3453;0.0223203;-0.0082506;-0.00797229
2.35528;0.0202834;-0.0081471;-0.00797229
2.36526;0.0183302;-0.00783247;-0.00797229
2.37524;0.0164612;-0.00803532;-0.00797229
2.38522;0.0144805;-0.00824232;-0.00797229
2.3952;0.0125107;-0.00797322;-0.00797229
2.40518;0.0104816;-0.00824646;-0.00797229
2.41516;0.0084763;-0.00824232;-0.00792436
2.42514;0.00641376;-0.00826716;-0.00797229
2.43512;0.00439751;-0.00822162;-0.00797229
2.4451;0.00233793;-0.00781178;-0.00797229
2.45508;0.000365145;-0.00792355;-0.00797229
2.46506;-0.00155532;-0.00803533;-0.00794033
2.47504;-0.0035794;-0.00821334;-0.00797229
2.48502;-0.00563901;-0.00814296;-0.00797229
2.495;-0.00767989;-0.0082299;-0.00797229
2.50498;-0.00966056;-0.00805602;-0.00795631
2.51496;-0.0116727;-0.00755097;-0.00797229
2.52494;-0.0137512;-0.00759651;-0.00797229
2.53492;-0.0157723;-0.00766275;-0.00797229
2.5449;-0.0176473;-0.00756753;-0.00797229
2.55488;-0.0195936;-0.00795667;-0.00797229
2.56486;-0.0215761;-0.00793183;-0.00797229
2.57484;-0.0235331;-0.00811812;-0.00797229
2.58482;-0.0254952;-0.00789043;-0.00797229
2.5948;-0.0274915;-0.0080643;-0.00797229
2.60478;-0.0295531;-0.00795254;-0.00797229
2.61476;-0.0315033;-0.00803947;-0.00797229
2.62474;-0.0335529;-0.00815538;-0.00795631
2.63472;-0.0355661;-0.00825888;-0.00787643
2.6447;-0.0375509;-0.00818436;-0.00797229
2.65468;-0.0395157;-0.00816366;-0.00794033
2.66466;-0.041532;-0.00818022;-0.00797229
2.67464;-0.0436267;-0.00816366;-0.00797229
2.68462;-0.04558;-0.00809328;-0.00797229
2.6946;-0.0476299;-0.00811399;-0.00797229
2.70458;-0.0495345;-0.00773312;-0.00792436
2.71456;-0.0489661;-0.00823818;-0.00797229
2.72454;-0.046931;-0.00820092;-0.00797229
2.73452;-0.0449532;-0.00789457;-0.00797229
2.7445;-0.0429373;-0.00765859;-0.00797229
2.75448;-0.0408866;-0.00771242;-0.00797229
2.76446;-0.0388465;-0.0078449;-0.00797229
2.77444;-0.0368598;-0.00824646;-0.00797229
2.78442;-0.0348764;-0.0081471;-0.00797229
2.7944;-0.0328967;-0.00825888;-0.00797229
2.80438;-0.0308518;-0.00826302;-0.00797229
2.81436;-0.0289165;-0.00806844;-0.00797229
2.82434;-0.0268234;-0.00790285;-0.00797229
2.83432;-0.0248624;-0.00815953;-0.00797229
2.8443;-0.0228718;-0.00821334;-0.00794033
2.85428;-0.0209425;-0.00825474;-0.00797229
2.86426;-0.0189846;-0.00826302;-0.00794033
2.87424;-0.0170563;-0.0081885;-0.00795631
2.88422;-0.0150895;-0.0081264;-0.00797229
2.8942;-0.013161;-0.00826302;-0.00797229
2.90418;-0.0111152;-0.00822162;-0.00797229
2.91416;-0.0090092;-0.0082299;-0.00797229
2.92414;-0.00702363;-0.00823404;-0.00797229
2.93412;-0.00488604;-0.00804774;-0.00797229
2.9441;-0.00289944;-0.00725703;-0.00795631
2.95408;-0.000975036;-0.00791113;-0.00797229
2.96406;0.00104806;-0.00824232;-0.00797229
2.97404;0.00299913;-0.00810157;-0.0078924
2.98402;0.00509331;-0.00793184;-0.00794033
2.994;0.00705719;-0.00803533;-0.00784448
3.00398;0.00912073;-0.00777452;-0.00797229
3.01396;0.0111044;-0.00790285;-0.00797229
3.02394;0.0131117;-0.00815538;-0.00797229
3.03392;0.0151308;-0.00795252;-0.00797229
3.0439;0.0170711;-0.00738951;-0.00794033
3.05388;0.0189727;-0.00774554;-0.00797229
3.06386;0.0209652;-0.00776623;-0.00797229
3.07384;0.0229973;-0.00768344;-0.00790838
3.08382;0.0249246;-0.0079815;-0.00797229
3.0938;0.0269468;-0.00796495;-0.00797229
3.10378;0.0289877;-0.00796908;-0.0078285
3.11376;0.0310236;-0.0077414;-0.00797229
3.12374;0.0330032;-0.00783662;-0.00795631
3.13372;0.035035;-0.00823404;-0.00797229
3.1437;0.0371135;-0.00815538;-0.00790838
3.15368;0.0390282;-0.00695069;-0.00794033
3.16366;0.0410354;-0.00704591;-0.00795631
3.17364;0.0430548;-0.00687203;-0.00790838
3.18362;0.0450316;-0.00692584;-0.00797229
3.1936;0.0469685;-0.00705833;-0.00797229
3.20358;0.0489186;-0.00754682;-0.00776459
3.21356;0.0486769;-0.00773312;-0.00787643
3.22354;0.0466489;-0.00825888;-0.00797229
3.23352;0.0447806;-0.00820506;-0.00797229
3.2435;0.042812;-0.00736467;-0.00797229
3.25348;0.0407859;-0.00755924;-0.00795631
3.26346;0.0388534;-0.00691344;-0.00797229
3.27344;0.0368391;-0.00781591;-0.00787643
3.28342;0.0347935;-0.00685135;-0.00794033
3.2934;0.0327477;-0.00795253;-0.0078924
3.30338;0.0307147;-0.00792769;-0.00790838
3.31336;0.0287408;-0.00724461;-0.00794033
3.32334;0.0266981;-0.00692171;-0.00790838
3.33332;0.0246632;-0.00780764;-0.00786045
3.3433;0.0227258;-0.0076586;-0.00797229
3.35328;0.0207373;-0.00804361;-0.00797229
3.36326;0.0187053;-0.00708317;-0.00797229
3.37324;0.0168391;-0.00760892;-0.00784448
3.38322;0.0148497;-0.0077;-0.00797229
3.3932;0.0128857;-0.00743091;-0.00797229
3.40318;0.0108971;-0.00792769;-0.00797229
3.41316;0.00887598;-0.00806844;-0.00797229
3.42314;0.00684007;-0.00784903;-0.00795631
3.43312;0.00487715;-0.00692999;-0.00797229
3.4431;0.00280964;-0.00673128;-0.00797229
3.45308;0.000802331;-0.0069921;-0.00795631
3.46306;-0.00111418;-0.00680167;-0.00778057
3.47304;-0.00315308;-0.00729844;-0.00794033
3.48302;-0.00519495;-0.00734398;-0.00797229
3.493;-0.00724371;-0.00780764;-0.00797229
3.50298;-0.0092737;-0.00791941;-0.00795631
3.51296;-0.0113017;-0.00766688;-0.00797229
3.52294;-0.0133969;-0.00719908;-0.00797229
3.53292;-0.0153341;-0.00796495;-0.00797229
3.5429;-0.0172486;-0.00753441;-0.00781252
3.55288;-0.0192146;-0.00806016;-0.00797229
3.56286;-0.0212021;-0.0079194;-0.00797229
3.57284;-0.0231413;-0.00780764;-0.00797229
3.58282;-0.0250914;-0.00806016;-0.00797229
3.5928;-0.0271027;-0.00822162;-0.00797229
3.60278;-0.0290972;-0.00826302;-0.00797229
3.61276;-0.0310839;-0.00809743;-0.00795631
3.62274;-0.0331306;-0.00824232;-0.00787643
3.63272;-0.0351545;-0.00812226;-0.00776459
3.6427;-0.0371263;-0.00806844;-0.00797229
3.65268;-0.0391594;-0.00801877;-0.00797229
3.66266;-0.0411035;-0.00818436;-0.00795631
3.67264;-0.0432362;-0.0081264;-0.00797229
3.68262;-0.0452803;-0.00789043;-0.00797229
3.6926;-0.047223;-0.00823818;-0.00797229
3.70258;-0.0492196;-0.00819264;-0.00797229
3.71256;-0.0493895;-0.0082092;-0.00797229
3.72254;-0.0473731;-0.00770827;-0.00797229
3.73252;-0.045355;-0.00803118;-0.00797229
3.7425;-0.0434296;-0.00824232;-0.0078285
3.75248;-0.0412644;-0.00824232;-0.00795631
3.76246;-0.0392561;-0.00817194;-0.00797229
3.77244;-0.0372645;-0.00807672;-0.00795631
3.78242;-0.0352464;-0.0082506;-0.00787643
3.7924;-0.0332874;-0.0082092;-0.00797229
3.80238;-0.0312652;-0.00798979;-0.00797229
3.81236;-0.0292798;-0.00788216;-0.00786045
3.82234;-0.027236;-0.00822576;-0.00797229
3.83232;-0.0253036;-0.00826302;-0.00795631
3.8423;-0.0233219;-0.00802291;-0.00797229
3.85228;-0.0213116;-0.00805602;-0.00797229
3.86226;-0.0193558;-0.00772483;-0.00797229
3.87224;-0.0173988;-0.00768758;-0.00797229
3.88222;-0.0155157;-0.00826302;-0.00797229
3.8922;-0.0135024;-0.00826302;-0.00797229
3.90218;-0.0114824;-0.00824646;-0.00797229
3.91216;-0.00941484;-0.00826302;-0.00797229
3.92214;-0.00742529;-0.00825474;-0.00797229
3.93212;-0.00531831;-0.00805603;-0.00797229
3.9421;-0.00326066;-0.00813883;-0.00797229
3.95208;-0.0013017;-0.0080229;-0.00797229
3.96206;0.000678972;-0.00812641;-0.00797229
3.97204;0.00259944;-0.00811813;-0.00797229
3.98202;0.00471828;-0.00796081;-0.00797229
3.992;0.0067572;-0.00720321;-0.00797229
4.00198;0.00870525;-0.00791113;-0.00797229
4.01196;0.0108123;-0.0079815;-0.00797229
4.02194;0.0127288;-0.00809742;-0.00797229
4.03192;0.0147084;-0.00815539;-0.00797229
4.0419;0.0166872;-0.00811398;-0.00794033
4.05188;0.0185918;-0.00765032;-0.00786045
4.06186;0.0205784;-0.00796081;-0.00797229
4.07184;0.0225374;-0.00793182;-0.00797229
4.08182;0.0245338;-0.00803119;-0.00797229
4.0918;0.0264939;-0.00819264;-0.00797229
4.10178;0.0285455;-0.00818436;-0.00781252
4.11176;0.0305854;-0.00771655;-0.00797229
4.12174;0.0326538;-0.00775795;-0.00794033
4.13172;0.0346266;-0.00750957;-0.00797229
4.1417;0.0367151;-0.00757581;-0.00784448
4.15168;0.0386628;-0.00811812;-0.00797229
4.16166;0.0405992;-0.00769173;-0.00797229
4.17164;0.0426945;-0.00782006;-0.00792436
4.18162;0.044614;-0.00825888;-0.00797229
4.1916;0.0465512;-0.00826302;-0.00794033
4.20158;0.0484685;-0.00799807;-0.00797229
4.21156;0.0490155;-0.00781177;-0.00797229
4.22154;0.0470909;-0.00760064;-0.00797229
4.23152;0.0451851;-0.00782419;-0.00795631
4.2415;0.0431782;-0.00782834;-0.00797229
4.25148;0.0411815;-0.0081885;-0.00797229
4.26146;0.0392028;-0.00787387;-0.00797229
4.27144;0.0372626;-0.00709145;-0.00797229
4.28142;0.0352848;-0.00696312;-0.00786045
4.2914;0.0331867;-0.00763791;-0.00797229
4.30138;0.0311735;-0.00804774;-0.00795631
4.31136;0.0291139;-0.00788628;-0.00797229
4.32134;0.0271491;-0.00803533;-0.00779655
4.33132;0.0251318;-0.00813883;-0.00797229
4.3413;0.0231965;-0.0081885;-0.00786045
4.35128;0.0211893;-0.00813468;-0.00797229
4.36126;0.0192047;-0.00801462;-0.00797229
4.37124;0.0172448;-0.00810985;-0.00797229
4.38122;0.0152582;-0.00713284;-0.00797229
4.3912;0.0133643;-0.00703349;-0.00797229
4.40118;0.011362;-0.00729429;-0.00795631
4.41116;0.00929541;-0.00729429;-0.00795631
4.42114;0.00727429;-0.00789043;-0.00779655
4.43112;0.00529068;-0.00728187;-0.00797229
4.4411;0.00320144;-0.00724048;-0.00797229
4.45108;0.00118525;-0.00765447;-0.00797229
4.46106;-0.000736211;-0.00810571;-0.00790838
4.47104;-0.00271293;-0.0079815;-0.00797229
4.48102;-0.00473309;-0.00684722;-0.00776459
4.491;-0.00684108;-0.00787801;-0.00797229
4.50098;-0.00883451;-0.00703763;-0.00795631
4.51096;-0.0108449;-0.00739366;-0.00795631
4.52094;-0.0128966;-0.00798979;-0.00795631
4.53092;-0.014887;-0.00797322;-0.00787643
4.5409;-0.0168944;-0.00728189;-0.00792436
4.55088;-0.0187704;-0.00799393;-0.00794033
4.56086;-0.020757;-0.00805188;-0.00797229
4.57084;-0.0227447;-0.00809742;-0.00797229
4.58082;-0.0246562;-0.00737295;-0.00795631
4.5908;-0.0266626;-0.00784076;-0.00797229
4.60078;-0.0286896;-0.00822576;-0.00797229
4.61076;-0.0306713;-0.00776624;-0.00797229
4.62074;-0.0326854;-0.00820506;-0.00797229
4.63072;-0.0346809;-0.00782419;-0.00797229
4.6407;-0.0366815;-0.00786973;-0.00797229
4.65068;-0.0386737;-0.00826302;-0.00797229
4.66066;-0.0406702;-0.00822162;-0.00797229
4.67064;-0.0427537;-0.00779935;-0.00797229
4.68062;-0.0448055;-0.00806017;-0.00797229
4.6906;-0.0467278;-0.00749301;-0.00794033
4.70058;-0.0487744;-0.00794425;-0.00797229
4.71056;-0.0496517;-0.00823818;-0.00797229
4.72054;-0.0477415;-0.00744746;-0.00797229
