t;vds;corrente;vg
0.000499;-0.00934477;-0.0116678;0.373264
0.000998;-0.00889767;-0.0121875;0.381174
0.001497;-0.00845956;-0.0119598;0.381174
0.001996;-0.00786935;-0.0110739;0.381174
0.002495;-0.00744013;-0.0108131;0.381174
0.002994;-0.00694271;-0.0107345;0.381174
0.003493;-0.0062746;-0.0103743;0.381174
0.003992;-0.00586109;-0.0103288;0.381174
0.004491;-0.00540019;-0.0103205;0.381174
0.00499;-0.00480809;-0.0102915;0.381174
0.005489;-0.00436101;-0.0102253;0.381174
0.005988;-0.00387448;-0.00966228;0.381174
0.006487;-0.00341166;-0.00915308;0.381174
0.006986;-0.00292906;-0.00840378;0.381174
0.007485;-0.00248102;-0.00837894;0.381047
0.007984;-0.00202606;-0.0083748;0.381174
0.008483;-0.00135992;-0.00817194;0.381174
0.008982;-0.000926677;-0.00823404;0.381174
0.009481;-0.000511202;-0.00766688;0.381174
0.00998;6.90817e-05;-0.00781591;0.381174
0.010479;0.00050232;-0.00753855;0.381174
0.010978;0.000937532;-0.00740607;0.381174
0.011477;0.0013846;-0.00666918;0.381174
0.011976;0.00188;-0.00656983;0.381174
0.012475;0.0022945;-0.00619726;0.381174
0.012974;0.00280275;-0.00616414;0.381174
0.013473;0.00332579;-0.00614344;0.381174
0.013972;0.00383599;-0.00606479;0.381174
0.014471;0.00432448;-0.00550594;0.381174
0.01497;0.00496599;-0.00439233;0.381174
0.015469;0.00544165;-0.00427641;0.381174
0.015968;0.00587392;-0.00441717;0.381174
0.016467;0.0063634;-0.00411081;0.381174
0.016966;0.00688055;-0.00408597;0.381174
0.017465;0.0073148;-0.00396178;0.381174
0.017964;0.00775882;-0.00363475;0.381174
0.018463;0.00833718;-0.00292271;0.381174
0.018962;0.008798;-0.00276953;0.381174
0.019461;0.00927373;-0.00301792;0.381174
0.01996;0.00977208;-0.0030469;0.381174
0.020459;0.0102892;-0.00253356;0.381174
0.020958;0.010755;-0.00226861;0.381174
0.021457;0.0113018;-0.00217339;0.381174
0.021956;0.0119027;-0.00177597;0.381174
0.022455;0.0122807;-0.0019043;0.381142
0.022954;0.0127623;-0.000861077;0.381174
0.023453;0.0132577;-0.00101011;0.381174
0.023952;0.0137325;-0.000736884;0.381174
0.024451;0.0141667;-0.000554734;0.381174
0.02495;0.0146582;-0.000111775;0.381174
0.025449;0.0151683;-0.000103495;0.381174
0.025948;0.0155867;2.48388e-05;0.381174
0.026447;0.0161098;0.000604411;0.381174
0.026946;0.0165885;0.00151516;0.381174
0.027445;0.0170948;0.00187532;0.381174
0.027944;0.017525;0.00206576;0.381174
0.028443;0.0179986;0.00205748;0.381174
0.028942;0.0184152;0.00212371;0.381174
0.029441;0.0188701;0.00224377;0.381174
0.02994;0.019403;0.00256254;0.381174
0.030439;0.0199065;0.00310071;0.381174
0.030938;0.0203879;0.00366371;0.381174
0.031437;0.0207827;0.00359334;0.381174
0.031936;0.0213778;0.00394522;0.381174
0.032435;0.0218869;0.00400732;0.381174
0.032934;0.0222542;0.00382931;0.381174
0.033433;0.0227614;0.00413979;0.381174
0.033932;0.0232291;0.00413151;0.381174
0.034431;0.0237591;0.00442545;0.381174
0.03493;0.0242179;0.00469454;0.381174
0.035429;0.0248171;0.00548108;0.381174
0.035928;0.0252158;0.00567565;0.381174
0.036427;0.0256885;0.00605651;0.381174
0.036926;0.0261001;0.00586194;0.381174
0.037425;0.026548;0.0061186;0.381174
0.037924;0.027016;0.00602339;0.381174
0.038423;0.0275873;0.00628833;0.381174
0.038922;0.0280678;0.00656156;0.381174
0.039421;0.02851;0.00752613;0.381174
0.03992;0.0290063;0.00789457;0.381174
0.040419;0.0295661;0.00807673;0.381174
0.040918;0.03001;0.00824232;0.381174
0.041417;0.0305745;0.0081471;0.381174
0.041916;0.0311302;0.00847002;0.381174
0.042415;0.0316186;0.00858594;0.381174
0.042914;0.0320707;0.00957948;0.381174
0.043413;0.0325975;0.00950495;0.381174
0.043912;0.0330782;0.00957118;0.381174
0.044411;0.0334919;0.00954225;0.381174
0.04491;0.0339357;0.0100059;0.381174
0.045409;0.0345606;0.0100555;0.381174
0.045908;0.0349878;0.0102874;0.381174
0.046407;0.0354269;0.010366;0.381174
0.046906;0.0360438;0.0112147;0.381174
0.047405;0.0365254;0.0112685;0.381174
0.047904;0.0369982;0.0118481;0.381174
0.048403;0.0375448;0.0120137;0.381174
0.048902;0.0380493;0.0115831;0.381174
0.049401;0.0384164;0.0123241;0.381174
0.0499;0.0389353;0.0123448;0.381174
0.050399;0.0394111;0.01244;0.381174
0.050898;0.0398037;0.0128002;0.381174
0.051397;0.0402797;0.0128913;0.381174
0.051896;0.0408478;0.0133715;0.381174
0.052395;0.0412938;0.0133839;0.381174
0.052894;0.0417728;0.0137441;0.381174
0.053393;0.0423302;0.0143527;0.381174
0.053892;0.0428316;0.014245;0.381174
0.054391;0.0433497;0.0144562;0.381174
0.05489;0.0438075;0.0149405;0.381174
0.055389;0.0443611;0.0147211;0.381174
0.055888;0.0447411;0.0154621;0.381174
0.056387;0.0451134;0.0159548;0.381174
0.056886;0.045599;0.016257;0.381174
0.057385;0.0460821;0.0166461;0.381174
0.057884;0.0465551;0.016555;0.381174
0.058383;0.0470122;0.016555;0.381174
0.058882;0.0475408;0.0164847;0.381142
0.059381;0.0480018;0.0169649;0.381174
0.05988;0.0481033;0.0169939;0.381174
0.060379;0.047752;0.0167041;0.381174
0.060878;0.047171;0.0165343;0.381174
0.061377;0.0467209;0.0164929;0.381174
0.061876;0.0462874;0.0162776;0.381174
0.062375;0.0457825;0.0155449;0.381174
0.062874;0.0452841;0.0155863;0.380856
0.063373;0.0447864;0.0151185;0.381174
0.063872;0.0443187;0.0145348;0.381174
0.064371;0.0438629;0.0146963;0.381174
0.06487;0.0433911;0.0145638;0.381174
0.065369;0.0429677;0.0145348;0.381174
0.065868;0.0424092;0.0139925;0.381015
0.066367;0.0419169;0.0140504;0.381174
0.066866;0.0414695;0.0139056;0.381174
0.067365;0.0410412;0.0125353;0.381174
0.067864;0.0404712;0.012556;0.381174
0.068363;0.0400021;0.0124939;0.381174
0.068862;0.039636;0.0123241;0.381174
0.069361;0.0390825;0.0121296;0.381174
0.06986;0.0385259;0.0112022;0.381174
0.070359;0.0380601;0.0105771;0.381174
0.070858;0.0375647;0.0105068;0.381174
0.071357;0.0370545;0.0103122;0.381174
0.071856;0.0366516;0.0101508;0.381174
0.072355;0.0361563;0.0103288;0.381174
0.072854;0.0356529;0.00984028;0.381174
0.073353;0.0351348;0.00930215;0.381174
0.073852;0.0347392;0.00938908;0.381174
0.074351;0.0342269;0.00929384;0.381174
0.07485;0.0336428;0.00897919;0.381174
0.075349;0.0332212;0.00874326;0.381174
0.075848;0.0327387;0.00882189;0.381174
0.076347;0.0321152;0.00834996;0.381174
0.076846;0.0317103;0.00871842;0.381174
0.077345;0.0312398;0.00831684;0.381174
0.077844;0.0307126;0.0081057;0.381174
0.078343;0.0302114;0.00795667;0.381174
0.078842;0.0297852;0.00787801;0.381174
0.079341;0.0292342;0.00729017;0.381174
0.07984;0.0287824;0.00735639;0.381174
0.080339;0.0283056;0.0065036;0.381174
0.080838;0.0278301;0.00681822;0.381174
0.081337;0.0273269;0.00642907;0.381174
0.081836;0.0268569;0.00612274;0.381174
0.082335;0.0262895;0.00629661;0.381174
0.082834;0.0257289;0.00619726;0.381174
0.083333;0.0252504;0.00618898;0.381174
0.083832;0.024812;0.00584539;0.381174
0.084331;0.0243621;0.0055639;0.381174
0.08483;0.0237947;0.00513335;0.381174
0.085329;0.0234808;0.0046697;0.381174
0.085828;0.0229746;0.00448754;0.381174
0.086327;0.0224692;0.00422673;0.381174
0.086826;0.0220123;0.00418947;0.381174
0.087325;0.0215515;0.00412737;0.381174
0.087824;0.0210027;0.00389555;0.381174
0.088323;0.0204601;0.00371339;0.381174
0.088822;0.0199567;0.00281921;0.381174
0.089321;0.0194139;0.00257082;0.381174
0.08982;0.0189166;0.00233899;0.381174
0.090319;0.018575;0.00197468;0.381174
0.090818;0.0181645;0.00206576;0.381174
0.091317;0.0177016;0.00206576;0.381174
0.091816;0.017228;0.00182979;0.381174
0.092315;0.0168639;0.00107221;0.381174
0.092814;0.0163664;0.000757583;0.381174
0.093313;0.0158828;0.000575432;0.381174
0.093812;0.0153982;0.000538174;0.381174
0.094311;0.0148941;0.000194571;0.381174
0.09481;0.014296;0.000115914;0.381174
0.095309;0.0138203;-9.93552e-05;0.381174
0.095808;0.0133367;-0.000273227;0.381174
0.096307;0.0128195;-0.000269087;0.381174
0.096806;0.0123172;-0.000890056;0.381174
0.097305;0.012041;-0.000645809;0.381269
0.097804;0.0114222;-0.0019457;0.381174
0.098303;0.0109159;-0.00198296;0.381174
0.098802;0.0104698;-0.00195398;0.381174
0.099301;0.0100218;-0.00218995;0.381174
0.0998;0.00949974;-0.00218167;0.381174
0.100299;0.0089628;-0.00252114;0.381174
0.100798;0.00854443;-0.00311727;0.381174
0.101297;0.00795916;-0.00360576;0.381174
0.101796;0.00739374;-0.00339049;0.381174
0.102295;0.00693778;-0.00400317;0.381174
0.102794;0.00642162;-0.00410253;0.381174
0.103293;0.00594399;-0.00406527;0.381174
0.103792;0.00553541;-0.00428883;0.381174
0.104291;0.00504197;-0.00485599;0.381174
0.10479;0.00451595;-0.00519959;0.381174
0.105289;0.00408961;-0.0056798;0.381174
0.105788;0.00357547;-0.00558459;0.381174
0.106287;0.0031077;-0.00582882;0.381174
0.106786;0.00246918;-0.00605237;0.381174
0.107285;0.00195106;-0.00619726;0.381174
0.107784;0.00153855;-0.00625935;0.381174
0.108283;0.00102438;-0.00619726;0.381174
0.108782;0.000610876;-0.00667747;0.381174
0.109281;0.000211192;-0.00718667;0.381174
0.10978;-0.000313827;-0.00782421;0.381174
0.110279;-0.000800356;-0.00774967;0.381174
0.110778;-0.00123755;-0.0077207;0.381174
0.111277;-0.00174875;-0.00801877;0.381174
0.111776;-0.00226489;-0.00815124;0.381174
0.112275;-0.00266162;-0.00826302;0.381174
0.112774;-0.00317479;-0.00872255;0.381174
0.113273;-0.0037077;-0.0083541;0.381174
0.113772;-0.00416067;-0.00914479;0.381174
0.114271;-0.00474887;-0.00977404;0.381174
0.11477;-0.00528376;-0.00966226;0.381174
0.115269;-0.00572194;-0.0099769;0.381174
0.115768;-0.00619858;-0.0103288;0.381174
0.116267;-0.00680061;-0.0102087;0.381174
0.116766;-0.00732268;-0.0103702;0.381174
0.117265;-0.00774698;-0.0105937;0.381174
0.117764;-0.00816052;-0.0112892;0.381174
0.118263;-0.00872103;-0.0122703;0.381174
0.118762;-0.00918688;-0.0123655;0.381174
0.119261;-0.00966846;-0.0123945;0.381174
0.11976;-0.010229;-0.0123655;0.381174
0.120259;-0.0107037;-0.0124069;0.381174
0.120758;-0.011137;-0.0124525;0.381174
0.121257;-0.0118129;-0.0123986;0.381174
0.121756;-0.0122984;-0.0126512;0.381174
0.122255;-0.0127179;-0.0129989;0.381174
0.122754;-0.0131758;-0.0135205;0.381174
0.123253;-0.0136959;-0.014096;0.381174
0.123752;-0.0140996;-0.0145058;0.381174
0.124251;-0.0145388;-0.0145183;0.381174
0.12475;-0.01511;-0.0145183;0.381174
0.125249;-0.015642;-0.0154083;0.381174
0.125748;-0.0160141;-0.0153545;0.381174
0.126247;-0.0165678;-0.0164267;0.381174
0.126746;-0.0170158;-0.0160541;0.381174
0.127245;-0.0173622;-0.0159465;0.381174
0.127744;-0.0179503;-0.016526;0.381174
0.128243;-0.018505;-0.0167703;0.381174
0.128742;-0.0188859;-0.016555;0.381174
0.129241;-0.019334;-0.0172422;0.381174
0.12974;-0.0197871;-0.0175527;0.381174
0.130239;-0.0203337;-0.0174451;0.381174
0.130738;-0.0207432;-0.0179709;0.381174
0.131237;-0.0212524;-0.0178094;0.381174
0.131736;-0.0217735;-0.0184593;0.381174
0.132235;-0.0221811;-0.0186332;0.381174
0.132734;-0.0226805;-0.0185835;0.381174
0.133233;-0.0231788;-0.0186001;0.381174
0.133732;-0.0236546;-0.0186705;0.381174
0.134231;-0.0241202;-0.0188029;0.381174
0.13473;-0.024669;-0.0186953;0.381174
0.135229;-0.0251458;-0.0195481;0.381174
0.135728;-0.0255266;-0.0204795;0.381174
0.136227;-0.0259817;-0.0207983;0.381174
0.136726;-0.0265115;-0.0206575;0.381174
0.137225;-0.026943;-0.0210136;0.381174
0.137724;-0.0274235;-0.0218954;0.381174
0.138223;-0.0279513;-0.0218251;0.381174
0.138722;-0.0284498;-0.0225454;0.381174
0.139221;-0.028953;-0.0227234;0.381174
0.13972;-0.0295157;-0.02274;0.381174
0.140219;-0.0300189;-0.0229056;0.381174
0.140718;-0.0304757;-0.0227731;0.381174
0.141217;-0.0308875;-0.0230463;0.381174
0.141716;-0.0313945;-0.0235306;0.381174
0.142215;-0.0318862;-0.023216;0.381174
0.142714;-0.032268;-0.0236879;0.381174
0.143213;-0.0328629;-0.0237417;0.381174
0.143712;-0.0333863;-0.024491;0.381174
0.144211;-0.0338232;-0.0244123;0.381174
0.14471;-0.0343958;-0.02464;0.381174
0.145209;-0.0348842;-0.0247725;0.381174
0.145708;-0.0352611;-0.0247476;0.381174
0.146207;-0.0357793;-0.0248097;0.381174
0.146706;-0.036323;-0.0249878;0.381174
0.147205;-0.0367743;-0.0252238;0.381174
0.147704;-0.0372755;-0.0254473;0.381174
0.148203;-0.0378124;-0.0261967;0.381174
0.148702;-0.0382693;-0.0267929;0.381174
0.149201;-0.038739;-0.026855;0.381174
0.1497;-0.0392117;-0.0268509;0.381174
0.150199;-0.0397317;-0.0268674;0.381174
0.150698;-0.0401415;-0.0271696;0.381174
0.151197;-0.0406494;-0.0274593;0.381174
0.151696;-0.0411784;-0.0284197;0.381174
0.152195;-0.0417314;-0.0282831;0.381174
0.152694;-0.0421626;-0.0285066;0.381174
0.153193;-0.0427832;-0.0288709;0.381174
0.153692;-0.0433329;-0.0292187;0.381174
0.154191;-0.0437582;-0.0296823;0.381174
0.15469;-0.0442308;-0.0295375;0.381174
0.155189;-0.0446769;-0.0300219;0.381174
0.155688;-0.0450808;-0.0304441;0.381174
0.156187;-0.045607;-0.0308375;0.381174
0.156686;-0.0460733;-0.030883;0.381174
0.157185;-0.0465748;-0.0309865;0.381174
0.157684;-0.0470103;-0.0309699;0.381174
0.158183;-0.0475477;-0.0309865;0.381174
0.158682;-0.0481468;-0.0309865;0.381174
0.159181;-0.0485616;-0.031537;0.381174
0.15968;-0.0490045;-0.0315246;0.381174
0.160179;-0.0486859;-0.0313756;0.381174
0.160678;-0.0480964;-0.031061;0.381174
0.161177;-0.0475618;-0.0310776;0.381174
0.161676;-0.0471127;-0.0310237;0.381174
0.162175;-0.0466033;-0.0309865;0.381174
0.162674;-0.046111;-0.0309865;0.381174
0.163173;-0.0456887;-0.0309368;0.381174
0.163672;-0.0452564;-0.0305476;0.381174
0.164171;-0.0447311;-0.0306511;0.381174
0.16467;-0.044238;-0.0298438;0.381174
0.165169;-0.0438382;-0.0290034;0.381174
0.165668;-0.043323;-0.0293843;0.380951
0.166167;-0.0428267;-0.0289206;0.381174
0.166666;-0.0423096;-0.0289206;0.381174
0.167165;-0.0417361;-0.029111;0.381174
0.167664;-0.0411763;-0.0287385;0.381174
0.168163;-0.040774;-0.0288916;0.381174
0.168662;-0.0403053;-0.0288461;0.381174
0.169161;-0.0397306;-0.0276208;0.380601
0.16966;-0.0393006;-0.0271654;0.380983
0.170159;-0.0388762;-0.027033;0.381174
0.170658;-0.0383186;-0.0271282;0.381174
0.171157;-0.0378392;-0.026855;0.381174
0.171656;-0.0374738;-0.0266025;0.381174
0.172155;-0.0368896;-0.0257827;0.381174
0.172654;-0.0363911;-0.0258283;0.381174
0.173153;-0.0358436;-0.0253107;0.381174
0.173652;-0.0353716;-0.0248677;0.381174
0.174151;-0.0348349;-0.0248801;0.381078
0.17465;-0.0343702;-0.024789;0.381174
0.175149;-0.0339367;-0.024789;0.381174
0.175648;-0.0334217;-0.0243378;0.381174
0.176147;-0.032868;-0.023659;0.381174
0.176646;-0.0324526;-0.02375;0.381174
0.177145;-0.0319977;-0.0230546;0.381174
0.177644;-0.0314488;-0.0229097;0.381174
0.178143;-0.0309279;-0.0227234;0.381174
0.178642;-0.0305645;-0.0227483;0.381174
0.179141;-0.0299805;-0.0227234;0.381174
0.17964;-0.0295078;-0.0227234;0.381174
0.180139;-0.0291296;-0.0225578;0.381174
0.180638;-0.0285682;-0.022355;0.381174
0.181137;-0.0279899;-0.0224419;0.381174
0.181636;-0.0275528;-0.0218788;0.381174
0.182135;-0.0270801;-0.0218374;0.381174
0.182634;-0.0264642;-0.0207072;0.381174
0.183133;-0.0260457;-0.0206079;0.381174
0.183632;-0.0256115;-0.020612;0.381174
0.184131;-0.0251389;-0.020434;0.381174
0.18463;-0.0246758;-0.0198172;0.381174
0.185129;-0.0242358;-0.0199;0.381174
0.185628;-0.0237681;-0.0189147;0.381174
0.186127;-0.0232675;-0.0188443;0.381174
0.186626;-0.0227595;-0.018716;0.381174
0.187125;-0.0222955;-0.0185918;0.381174
0.187624;-0.0217341;-0.018538;0.381174
0.188123;-0.0212999;-0.0185794;0.381174
0.188622;-0.0207806;-0.0178881;0.381174
0.189121;-0.0203348;-0.0173292;0.381174
0.18962;-0.0198787;-0.0173954;0.381174
0.190119;-0.0194603;-0.0175734;0.381174
0.190618;-0.0190251;-0.0169732;0.381174
0.191117;-0.0185296;-0.0165053;0.381174
0.191616;-0.0181171;-0.016526;0.381174
0.192115;-0.0176039;-0.0163563;0.381174
0.192614;-0.0170365;-0.0157602;0.381174
0.193113;-0.0165826;-0.0161576;0.381174
0.193612;-0.0161799;-0.0159423;0.381174
0.194111;-0.0156528;-0.0158678;0.381174
0.19461;-0.0151575;-0.015313;0.381174
0.195109;-0.0147421;-0.015164;0.381174
0.195608;-0.0142288;-0.0146838;0.381174
0.196107;-0.0137788;-0.0145017;0.381174
0.196606;-0.0133801;-0.0143609;0.381174
0.197105;-0.0128353;-0.0132183;0.381174
0.197604;-0.0122146;-0.0129534;0.381174
0.198103;-0.0117617;-0.0127671;0.381174
0.198602;-0.0113176;-0.0128582;0.381174
0.199101;-0.0107264;-0.0124814;0.381174
0.1996;-0.0101836;-0.0123697;0.381174
0.200099;-0.0097968;-0.0122041;0.381174
0.200598;-0.0092589;-0.0121503;0.381206
0.201097;-0.00869835;-0.0111981;0.381174
0.201596;-0.00827105;-0.0114217;0.381174
0.202095;-0.00778254;-0.0105399;0.381174
0.202594;-0.00727629;-0.010515;0.381174
0.203093;-0.00680553;-0.0104281;0.381174
0.203592;-0.00631605;-0.0104281;0.381174
0.204091;-0.00578608;-0.0103495;0.381174
0.20459;-0.00523045;-0.00993549;0.381174
0.205089;-0.00474296;-0.00945946;0.381174
0.205588;-0.00420607;-0.00910758;0.381174
0.206087;-0.00367317;-0.00927313;0.381174
0.206586;-0.00324586;-0.00946358;0.381174
0.207085;-0.00283629;-0.00887157;0.381174
0.207584;-0.00229154;-0.00880121;0.381174
0.208083;-0.00182376;-0.00850728;0.381174
0.208582;-0.00140828;-0.00830442;0.381174
0.209081;-0.000946414;-0.00824646;0.381174
0.20958;-0.000411527;-0.00802705;0.380665
0.210079;7.89505e-05;-0.00759236;0.381174
0.210578;0.000496399;-0.00722393;0.381174
0.211077;0.00106484;-0.00626763;0.381174
0.211576;0.00148822;-0.00638768;0.381174
0.212075;0.00193527;-0.00625107;0.381174
0.212574;0.00245437;-0.00619726;0.381174
0.213073;0.0029567;-0.00619726;0.381174
0.213572;0.00340671;-0.00595716;0.381174
0.214071;0.00398204;-0.00573775;0.381174
0.21457;0.0045801;-0.00550178;0.381174
0.215069;0.00499264;-0.00512092;0.381174
0.215568;0.00544561;-0.00517475;0.381174
0.216067;0.00598739;-0.00500915;0.381174
0.216566;0.00642656;-0.00428469;0.381174
0.217065;0.00683317;-0.00413565;0.381174
0.217564;0.00737103;-0.00410253;0.381174
0.218063;0.0079039;-0.00416049;0.381174
0.218562;0.00833323;-0.00376307;0.381174
0.219061;0.0088434;-0.00376721;0.381047
0.21956;0.00940988;-0.00340292;0.381174
0.220059;0.00985598;-0.00315867;0.381174
0.220558;0.0103454;-0.00252942;0.381174
0.221057;0.0109159;-0.00233071;0.381174
0.221556;0.0113847;-0.00206162;0.381174
0.222055;0.011813;-0.00206576;0.381174
0.222554;0.0122797;-0.0020492;0.381174
0.223053;0.0127742;-0.00170559;0.381174
0.223552;0.013233;-0.00165592;0.381174
0.224051;0.0136802;-0.000985271;0.381174
0.22455;0.0142723;-0.000273227;0.381174
0.225049;0.0147588;-0.000356023;0.38111
0.225548;0.015188;-0.000273227;0.381174
0.226047;0.0157219;-6.2097e-05;0.381174
0.226546;0.0162075;0.000178011;0.381174
0.227045;0.0165954;0.000149033;0.38076
0.227544;0.0171293;0.000712045;0.381174
0.228043;0.0175832;0.000765862;0.381174
0.228542;0.0179661;0.0016435;0.381174
0.229041;0.018434;0.00169731;0.381174
0.22954;0.0189955;0.00207403;0.381174
0.230039;0.0194376;0.00243834;0.381174
0.230538;0.0198739;0.00260394;0.380983
0.231037;0.0204569;0.00298067;0.381174
0.231536;0.0210186;0.00325388;0.381174
0.232035;0.0214468;0.00390796;0.381174
0.232534;0.021954;0.0040156;0.381174
0.233033;0.0224378;0.0039535;0.381174
0.233532;0.022861;0.00427227;0.381174
0.234031;0.0233624;0.00414393;0.380919
0.23453;0.023842;0.00428469;0.381174
0.235029;0.0242682;0.00413151;0.381174
0.235528;0.0246729;0.00475248;0.381174
0.236027;0.0252158;0.00555561;0.381174
0.236526;0.0257103;0.00581226;0.381174
0.237025;0.0262145;0.00615172;0.381174
0.237524;0.0267297;0.00619726;0.381174
0.238023;0.0272399;0.00621381;0.381174
0.238522;0.0277944;0.00658226;0.381174
0.239021;0.0281755;0.00648704;0.381174
0.23952;0.0286777;0.00645806;0.381174
0.240019;0.029187;0.00647462;0.381174
0.240518;0.0296568;0.00745989;0.381174
0.241017;0.0302083;0.00805189;0.381174
0.241516;0.0307137;0.00816366;0.381174
0.242015;0.0311164;0.00826302;0.381174
0.242514;0.0317006;0.00840792;0.381174
0.243013;0.0322493;0.00854867;0.381174
0.243512;0.0327238;0.00859008;0.381174
0.244011;0.0330989;0.00889643;0.381174
0.24451;0.0336822;0.00930625;0.381174
0.245009;0.0341065;0.00909511;0.381174
0.245508;0.0345991;0.00968295;0.381174
0.246007;0.0351693;0.0101714;0.381174
0.246506;0.0356153;0.0101176;0.381174
0.247005;0.0360803;0.0103288;0.381174
0.247504;0.0365936;0.0104654;0.381174
0.248003;0.0371108;0.0104736;0.381174
0.248502;0.037527;0.0108794;0.381174
0.249001;0.0379901;0.011463;0.381174
0.2495;0.0384726;0.0113182;0.381174
0.249999;0.0389807;0.0117901;0.381174
0.250498;0.0394674;0.0123697;0.381174
0.250997;0.0400546;0.0129865;0.381174
0.251496;0.0405785;0.0130569;0.381174
0.251995;0.0410156;0.0132929;0.381174
