t;vds;corrente;vg
0.000499;-0.00907235;-0.0122837;0.0435258
0.000998;-0.00854936;-0.0123697;0.0471693
0.001497;-0.0081299;-0.0120054;0.0467555
0.001996;-0.00760197;-0.0109539;0.0441455
0.002495;-0.00714601;-0.0106765;0.045005
0.002994;-0.00666636;-0.0103288;0.0451322
0.003493;-0.00613744;-0.0103288;0.0464054
0.003992;-0.00556107;-0.0102749;0.044241
0.004491;-0.00517617;-0.0102791;0.0443684
0.00499;-0.00462945;-0.00968298;0.0443684
0.005489;-0.00407975;-0.00962504;0.0439864
0.005988;-0.00361297;-0.00859422;0.0457688
0.006487;-0.00316198;-0.00886332;0.043891
0.006986;-0.00265569;-0.00834996;0.0463099
0.007485;-0.00228068;-0.0082713;0.045737
0.007984;-0.00177343;-0.00817609;0.0435726
0.008483;-0.0012484;-0.00796081;0.0423313
0.008982;-0.000741144;-0.00777865;0.0417584
0.009481;-0.000251654;-0.00724462;0.0431588
0.00998;0.000200336;-0.00773726;0.0395622
0.010479;0.000807265;-0.00652016;0.0459916
0.010978;0.00112998;-0.0066609;0.044432
0.011477;0.00157013;-0.00626349;0.0454823
0.011976;0.00211883;-0.00625107;0.0441456
0.012475;0.00254813;-0.00619726;0.0420766
0.012974;0.00302677;-0.00615586;0.0406126
0.013473;0.00362086;-0.00578329;0.0441455
0.013972;0.00416264;-0.00487669;0.0429997
0.014471;0.00464425;-0.00465313;0.0447821
0.01497;0.00515448;-0.00440889;0.0459279
0.015469;0.00563115;-0.00423087;0.0460235
0.015968;0.00605549;-0.00422673;0.0466282
0.016467;0.00653612;-0.00419361;0.0463736
0.016966;0.00705623;-0.00409839;0.0443684
0.017465;0.00753384;-0.00403629;0.0425223
0.017964;0.00795818;-0.00399904;0.0474876
0.018463;0.00851874;-0.00410253;0.0467873
0.018962;0.00899441;-0.0039535;0.0464372
0.019461;0.00947699;-0.00382931;0.0415993
0.01996;0.00996748;-0.00238867;0.046851
0.020459;0.0104856;-0.00221893;0.0463099
0.020958;0.0110195;-0.00202436;0.0469147
0.021457;0.0114558;-0.0019457;0.0470738
0.021956;0.0120103;-0.00161866;0.0467237
0.022455;0.0124277;-0.00124194;0.0467555
0.022954;0.0129597;-0.00081968;0.0437317
0.023453;0.013464;-0.000140753;0.0462463
0.023952;0.0139378;-0.000190431;0.0454187
0.024451;0.0143206;0;0.0438273
0.02495;0.0148111;0;0.0429997
0.025449;0.0153331;-5.79572e-05;0.0451641
0.025948;0.0158581;0.000219409;0.0428406
0.026447;0.0162845;0.000798981;0.0444002
0.026946;0.0167553;0.000500916;0.0436363
0.027445;0.0172961;0.0012585;0.043318
0.027944;0.017746;0.00151516;0.0449731
0.028443;0.0182089;0.00199952;0.0453869
0.028942;0.0186619;0.0019457;0.0447185
0.029441;0.0191692;0.00226033;0.0437318
0.02994;0.0195728;0.00234727;0.0421722
0.030439;0.0200289;0.00265775;0.044623
0.030938;0.0205882;0.00360162;0.0453232
0.031437;0.021062;0.00304689;0.0391803
0.031936;0.0215268;0.00340291;0.0434772
0.032435;0.0220616;0.00406113;0.0403897
0.032934;0.0224062;0.00395764;0.0411218
0.033433;0.0229478;0.00408597;0.041472
0.033932;0.0235312;0.0044006;0.0430315
0.034431;0.0239387;0.0047235;0.0442411
0.03493;0.0243787;0.0057129;0.0458643
0.035429;0.0249168;0.00580399;0.0461189
0.035928;0.0253944;0.00597785;0.0471375
0.036427;0.0258505;0.00592818;0.0469783
0.036926;0.0263911;0.00610205;0.044241
0.037425;0.0268492;0.00618484;0.0460235
0.037924;0.0272972;0.00618898;0.0443365
0.038423;0.0277767;0.00622623;0.0443047
0.038922;0.0282535;0.00623865;0.0405807
0.039421;0.0287566;0.00623865;0.040899
0.03992;0.0292947;0.00666506;0.0474876
0.040419;0.0298511;0.0070542;0.0461508
0.040918;0.0303819;0.00731086;0.0444638
0.041417;0.0308628;0.00786145;0.0451004
0.041916;0.0314152;0.00818436;0.0445275
0.042415;0.0319464;0.00818437;0.0441137
0.042914;0.0323835;0.00826302;0.0415038
0.043413;0.0327603;0.00838308;0.0430952
0.043912;0.0332322;0.00842862;0.0437636
0.044411;0.0337434;0.00851969;0.0431588
0.04491;0.0341865;0.0085404;0.0414082
0.045409;0.0347362;0.00850313;0.042936
0.045908;0.0352956;0.00933941;0.0443684
0.046407;0.0357112;0.00929384;0.0435727
0.046906;0.036325;0.0101177;0.0419175
0.047405;0.0367851;0.0101466;0.0418221
0.047904;0.0373061;0.0105026;0.0452596
0.048403;0.0377472;0.0109828;0.0443684
0.048902;0.0381854;0.0108876;0.0414719
0.049401;0.0387548;0.0118067;0.0416947
0.0499;0.0391584;0.0122579;0.0443047
0.050399;0.0396538;0.0124814;0.0450686
0.050898;0.0401356;0.0126015;0.0471693
0.051397;0.0404906;0.0128292;0.0474558
0.051896;0.0410304;0.0132556;0.0476467
0.052395;0.041603;0.0137358;0.0461826
0.052894;0.0420877;0.0139552;0.0467555
0.053393;0.0425818;0.0144396;0.0471693
0.053892;0.0431404;0.0144851;0.0450049
0.054391;0.0436399;0.0146673;0.0437636
0.05489;0.0439978;0.0145555;0.0457688
0.055389;0.0444846;0.0151227;0.0455779
0.055888;0.0450571;0.0156774;0.045546
0.056387;0.0454234;0.0158554;0.0464372
0.056886;0.0458466;0.0163729;0.0467874
0.057385;0.0463121;0.0164929;0.0462781
0.057884;0.0467713;0.0164805;0.0465327
0.058383;0.0472864;0.0170104;0.0459916
0.058882;0.0478182;0.0167993;0.0418539
0.059381;0.0482672;0.0169276;0.04405
0.05988;0.0479414;0.016642;0.0432544
0.060379;0.0475155;0.0165757;0.0440182
0.060878;0.0470476;0.0164018;0.0425222
0.061377;0.046544;0.0159299;0.0451322
0.061876;0.0459622;0.0152758;0.0429997
0.062375;0.045594;0.015487;0.0417902
0.062874;0.0451587;0.0152054;0.0433816
0.063373;0.0446048;0.0146838;0.0424905
0.063872;0.0441975;0.0144603;0.0471056
0.064371;0.0437325;0.0146259;0.0446547
0.06487;0.0432391;0.0143113;0.0462463
0.065369;0.0427163;0.0138145;0.0460871
0.065868;0.0422779;0.0130527;0.0471056
0.066367;0.0417569;0.0130031;0.0446867
0.066866;0.0412444;0.0126263;0.0456733
0.067365;0.0408587;0.0128168;0.0463736
0.067864;0.0403103;0.0129534;0.0462781
0.068363;0.0398175;0.0124897;0.0450049
0.068862;0.0393234;0.0124318;0.045737
0.069361;0.0388732;0.0123283;0.045164
0.06986;0.0383502;0.0121544;0.0447503
0.070359;0.0378973;0.0112105;0.0464691
0.070858;0.0374058;0.0104985;0.0457052
0.071357;0.0368768;0.0106351;0.0420129
0.071856;0.0364207;0.0103495;0.0454506
0.072355;0.0359413;0.0103536;0.0447185
0.072854;0.035567;0.00997275;0.044432
0.073353;0.0349503;0.00962503;0.0441137
0.073852;0.0345024;0.00900406;0.0458643
0.074351;0.0339584;0.00854454;0.0458961
0.07485;0.0334266;0.00838722;0.0463418
0.075349;0.0329419;0.0086232;0.0460871
0.075848;0.0324496;0.00832926;0.0451004
0.076347;0.0320076;0.0081885;0.0473921
0.076846;0.0314498;0.00768343;0.044814
0.077345;0.0309604;0.00752199;0.0460235
0.077844;0.0304926;0.00757995;0.0452596
0.078343;0.0299371;0.0068679;0.0427769
0.078842;0.0295315;0.0075137;0.0474558
0.079341;0.0290783;0.00626349;0.0430315
0.07984;0.0284724;0.00619726;0.0438591
0.080339;0.0280263;0.00619312;0.0422995
0.080838;0.0275538;0.00611033;0.0445593
0.081337;0.0269863;0.00619726;0.0444002
0.081836;0.0265125;0.00606065;0.0463736
0.082335;0.0260853;0.00575844;0.0458962
0.082834;0.025578;0.00582469;0.0459916
0.083333;0.0250905;0.00548108;0.0470102
0.083832;0.0245781;0.00552664;0.0452277
0.084331;0.0241213;0.00447926;0.0465964
0.08483;0.0235923;0.00441716;0.0443365
0.085329;0.0231402;0.00413565;0.0436045
0.085828;0.0227398;0.00390383;0.0404852
0.086327;0.0222037;0.00378377;0.0431907
0.086826;0.0217104;0.00365544;0.0444002
0.087325;0.0213176;0.00300964;0.0463736
0.087824;0.0208132;0.00293925;0.0466282
0.088323;0.0202607;0.00279851;0.0476467
0.088822;0.019709;0.00232243;0.0472648
0.089321;0.0192432;0.00269501;0.0464054
0.08982;0.0187675;0.00229345;0.0470738
0.090319;0.0183125;0.00206162;0.04666
0.090818;0.0179217;0.00206162;0.0476467
0.091317;0.0174569;0.00141167;0.0473284
0.091816;0.0169971;0.00161866;0.0472329
0.092315;0.0165826;0.000376722;0.0469783
0.092814;0.0161276;4.96776e-05;0.0453232
0.093313;0.0155669;0.000157312;0.046851
0.093812;0.0150155;0;0.0464372
0.094311;0.0145822;0;0.0454187
0.09481;0.0140196;-2.0699e-05;0.044241
0.095309;0.0135439;-0.000157312;0.0441137
0.095808;0.0131205;-0.000645809;0.0443365
0.096307;0.0126636;-0.00169731;0.0465964
0.096806;0.0122333;-0.00158554;0.0469465
0.097305;0.0117094;-0.00190016;0.0476467
0.097804;0.0112485;-0.00222307;0.0465964
0.098303;0.0107155;-0.00206576;0.0453232
0.098802;0.0102467;-0.00216097;0.0458007
0.099301;0.00979976;-0.00228931;0.0458643
0.0998;0.00928061;-0.00228931;0.0467555
0.100299;0.00876447;-0.00260393;0.0476467
0.100798;0.00824934;-0.00306345;0.0469147
0.101297;0.00779733;-0.00398248;0.047042
0.101796;0.00721509;-0.00410667;0.0463736
0.102295;0.00671571;-0.00414393;0.0469783
0.102794;0.00630519;-0.00423915;0.0467555
0.103293;0.00578707;-0.00452066;0.0471056
0.103792;0.00532026;-0.00498845;0.0467873
0.104291;0.00482782;-0.00584124;0.0470101
0.10479;0.00436101;-0.00598613;0.0474558
0.105289;0.00388435;-0.00619726;0.0476467
0.105788;0.00337909;-0.0060772;0.0476467
0.106287;0.00284418;-0.00623038;0.0472011
0.106786;0.00226686;-0.00620139;0.0450686
0.107285;0.00175764;-0.00620967;0.0468192
0.107784;0.00130071;-0.00680167;0.0458643
0.108283;0.00080233;-0.00709972;0.0472011
0.108782;0.000365144;-0.0069507;0.0476149
0.109281;3.94752e-06;-0.00750129;0.0476467
0.10978;-0.000506267;-0.00796494;0.0471693
0.110279;-0.00101648;-0.00794425;0.0463417
0.110778;-0.00150993;-0.00830856;0.0454187
0.111277;-0.00196191;-0.00840791;0.0436681
0.111776;-0.0024603;-0.00830856;0.045737
0.112275;-0.00294091;-0.00886742;0.0456097
0.112774;-0.0034008;-0.00948014;0.0456734
0.113273;-0.00385178;-0.00935598;0.0468828
0.113772;-0.00449917;-0.0100141;0.045546
0.114271;-0.00502323;-0.0106103;0.0446229
0.11477;-0.00548509;-0.0103163;0.0457688
0.115269;-0.00599628;-0.0104405;0.0450686
0.115768;-0.00641077;-0.0104074;0.0459916
0.116267;-0.00699603;-0.0109125;0.0451004
0.116766;-0.00752496;-0.0111526;0.0462463
0.117265;-0.00800161;-0.0118729;0.0463736
0.117764;-0.00842403;-0.0118853;0.0458007
0.118263;-0.0088888;-0.0120178;0.0470102
0.118762;-0.00942372;-0.012527;0.0441137
0.119261;-0.00987275;-0.0124028;0.0459916
0.11976;-0.010381;-0.0124814;0.0446548
0.120259;-0.0109386;-0.012705;0.0436044
0.120758;-0.0114518;-0.0126305;0.0439228
0.121257;-0.0119234;-0.0128706;0.0458962
0.121756;-0.0124416;-0.0142947;0.0460234
0.122255;-0.013009;-0.01451;0.0455779
0.122754;-0.013388;-0.0143402;0.0462462
0.123253;-0.0138627;-0.0145597;0.044432
0.123752;-0.0143552;-0.015193;0.0465009
0.124251;-0.0148289;-0.0163522;0.0423313
0.12475;-0.0152374;-0.0161534;0.0389575
0.125249;-0.0158295;-0.0163977;0.0405808
0.125748;-0.016251;-0.0164184;0.039785
0.126247;-0.016775;-0.016555;0.042204
0.126746;-0.0172852;-0.016526;0.0432861
0.127245;-0.017744;-0.016584;0.0418221
0.127744;-0.0182049;-0.0168655;0.0409945
0.128243;-0.0186185;-0.0169525;0.0439864
0.128742;-0.0191613;-0.0173292;0.040358
0.129241;-0.0195126;-0.0180329;0.0396577
0.12974;-0.0199509;-0.0179419;0.0428087
0.130239;-0.0205586;-0.0184718;0.0413446
0.130738;-0.0210778;-0.0185421;0.03848
0.131237;-0.0214291;-0.0185007;0.0437
0.131736;-0.0220103;-0.0188443;0.0398168
0.132235;-0.0224674;-0.0188029;0.0437318
0.132734;-0.0228995;-0.0189975;0.041822
0.133233;-0.023472;-0.0199331;0.0400396
0.133732;-0.0239752;-0.0204878;0.0403261
0.134231;-0.0244567;-0.0206699;0.0441456
0.13473;-0.0248586;-0.0206327;0.0439227
0.135229;-0.0253421;-0.0207941;0.0391485
0.135728;-0.0258119;-0.0211502;0.0407081
0.136227;-0.0262549;-0.021883;0.0421085
0.136726;-0.0267791;-0.0224129;0.0430634
0.137225;-0.0272745;-0.0222059;0.042395
0.137724;-0.0276702;-0.0226862;0.0380981
0.138223;-0.0281241;-0.0225247;0.0437318
0.138722;-0.028726;-0.0227234;0.0476467
0.139221;-0.0292868;-0.02274;0.045355
0.13972;-0.0297712;-0.0228807;0.0423313
0.140219;-0.0302024;-0.0227607;0.0458961
0.140718;-0.0307977;-0.0227938;0.045928
0.141217;-0.031146;-0.0231167;0.0473921
0.141716;-0.031667;-0.0246607;0.045355
0.142215;-0.0322157;-0.0246855;0.044623
0.142714;-0.0326074;-0.0245696;0.046851
0.143213;-0.033091;-0.0246855;0.0464372
0.143712;-0.0336339;-0.0248263;0.0457052
0.144211;-0.0341371;-0.0248718;0.0427768
0.14471;-0.0345813;-0.025261;0.044432
0.145209;-0.0350687;-0.0254059;0.0466919
0.145708;-0.0355531;-0.0263085;0.0476467
0.146207;-0.0360419;-0.0265569;0.046851
0.146706;-0.0365679;-0.0268053;0.0476467
0.147205;-0.0370289;-0.026913;0.0433498
0.147704;-0.0374817;-0.0268467;0.0445912
0.148203;-0.0379269;-0.0270951;0.0419812
0.148702;-0.0385052;-0.0269916;0.0463417
0.149201;-0.0389649;-0.0272358;0.0429042
0.1497;-0.0393775;-0.0276167;0.0415356
0.150199;-0.0399104;-0.0279312;0.0455778
0.150698;-0.0404069;-0.0288378;0.045546
0.151197;-0.0408616;-0.0290241;0.0437318
0.151696;-0.041362;-0.0290241;0.046851
0.152195;-0.0419693;-0.0292684;0.0469147
0.152694;-0.042491;-0.0291235;0.0464691
0.153193;-0.0430251;-0.0296328;0.0445274
0.153692;-0.0435688;-0.0297776;0.0430315
0.154191;-0.0440216;-0.0306264;0.0404852
0.15469;-0.0444145;-0.0308333;0.0409308
0.155189;-0.0448675;-0.0309865;0.0407399
0.155688;-0.0454185;-0.0309865;0.0414719
0.156187;-0.0458269;-0.0309989;0.0372387
0.156686;-0.0462874;-0.0310155;0.038862
0.157185;-0.0468148;-0.0313301;0.0394986
0.157684;-0.0472756;-0.0310941;0.0464372
0.158183;-0.0477817;-0.0312597;0.0457051
0.158682;-0.0484253;-0.0321124;0.0447185
0.159181;-0.0487728;-0.0314708;0.0462781
0.15968;-0.0488558;-0.0317441;0.0456097
0.160179;-0.0483807;-0.0314708;0.0450686
0.160678;-0.0478626;-0.0313715;0.0470738
0.161177;-0.047319;-0.0309865;0.0456734
0.161676;-0.0467584;-0.0309865;0.0448139
0.162175;-0.0463278;-0.0309865;0.0434453
0.162674;-0.0458398;-0.0309865;0.041281
0.163173;-0.0453631;-0.0308374;0.0439546
0.163672;-0.0449058;-0.0306635;0.0458643
0.164171;-0.0445495;-0.0303075;0.0411537
0.16467;-0.0439863;-0.0301585;0.0418857
0.165169;-0.0435371;-0.0300343;0.0431588
0.165668;-0.0430822;-0.0296575;0.0431588
0.166167;-0.0425366;-0.0298024;0.0418857
0.166666;-0.0420165;-0.0290034;0.0432225
0.167165;-0.0414892;-0.0287467;0.0428724
0.167664;-0.0409948;-0.0288999;0.0426814
0.168163;-0.0404979;-0.0284321;0.0440818
0.168662;-0.0400258;-0.0280886;0.0421403
0.169161;-0.0395729;-0.027567;0.0416948
0.16966;-0.0390558;-0.0273476;0.0458961
0.170159;-0.0385288;-0.0271613;0.0425223
0.170658;-0.0381085;-0.0271075;0.0410899
0.171157;-0.0375983;-0.027211;0.0430634
0.171656;-0.0371265;-0.0268384;0.0452596
0.172155;-0.0366684;-0.0266852;0.0435726
0.172654;-0.0361336;-0.026263;0.0412492
0.173153;-0.0355907;-0.0261842;0.0412173
0.173652;-0.0350865;-0.0257164;0.0447184
0.174151;-0.0346988;-0.0254142;0.0421403
0.17465;-0.0341223;-0.0248718;0.0418539
0.175149;-0.0335343;-0.024789;0.042936
0.175648;-0.0331383;-0.0242302;0.0463417
0.176147;-0.0327072;-0.024048;0.0413127
0.176646;-0.0321517;-0.0234686;0.0454187
0.177145;-0.0316915;-0.0230794;0.0461508
0.177644;-0.0312417;-0.0228973;0.0464691
0.178143;-0.0307284;-0.0227896;0.0457688
0.178642;-0.0302045;-0.0226986;0.0458961
0.179141;-0.0298306;-0.0227234;0.0450368
0.17964;-0.0292747;-0.0227151;0.0468828
0.180139;-0.0287607;-0.0226323;0.0466919
0.180638;-0.028277;-0.0222183;0.0469465
0.181137;-0.0278192;-0.02209;0.0446866
0.181636;-0.0272845;-0.0217174;0.0444957
0.182135;-0.0267967;-0.0212909;0.0459916
0.182634;-0.0262984;-0.0209556;0.0415038
0.183133;-0.0257822;-0.0209804;0.0414719
0.183632;-0.0253412;-0.020761;0.0404852
0.184131;-0.0249275;-0.0206285;0.0414082
0.18463;-0.024447;-0.0203057;0.0439864
0.185129;-0.0239121;-0.0193867;0.0439546
0.185628;-0.0235519;-0.0190555;0.0423313
0.186127;-0.023012;-0.0186167;0.0448458
0.186626;-0.0223952;-0.0185918;0.0454505
0.187125;-0.0219492;-0.0185877;0.0451641
0.187624;-0.0215663;-0.0184469;0.0471375
0.188123;-0.0210076;-0.0181985;0.0467555
0.188622;-0.0204709;-0.0177639;0.0469465
0.189121;-0.0200821;-0.0173954;0.0461826
0.18962;-0.0195807;-0.0170146;0.0451322
0.190119;-0.0191199;-0.016733;0.0457052
0.190618;-0.0187201;-0.0166999;0.0436044
0.191117;-0.0183056;-0.0165178;0.0427451
0.191616;-0.0177796;-0.0164846;0.0399123
0.192115;-0.0172596;-0.0164971;0.0419494
0.192614;-0.0168244;-0.0161079;0.0448458
0.193113;-0.016322;-0.016406;0.0408354
0.193612;-0.01579;-0.0155614;0.0438273
0.194111;-0.0153854;-0.0151972;0.0429042
0.19461;-0.0149661;-0.0148536;0.0416947
0.195109;-0.0143808;-0.0149446;0.0423949
0.195608;-0.0140275;-0.0145845;0.0391166
0.196107;-0.0135617;-0.0143982;0.0417266
0.196606;-0.0130189;-0.0142781;0.0454824
0.197105;-0.0124859;-0.0136406;0.0458643
0.197604;-0.0120607;-0.0135537;0.0443365
0.198103;-0.0114765;-0.0124732;0.0474239
0.198602;-0.0109573;-0.0124732;0.0463736
0.199101;-0.0104194;-0.0124235;0.0469465
0.1996;-0.00993886;-0.012469;0.0452595
0.200099;-0.00947703;-0.0123366;0.0458961
0.200598;-0.00898452;-0.0121917;0.0438909
0.201097;-0.00854937;-0.0118191;0.0468828
0.201596;-0.00794436;-0.0106599;0.0464691
0.202095;-0.00747961;-0.0104488;0.0470101
0.202594;-0.00706113;-0.0103784;0.0465645
0.203093;-0.00649169;-0.0103081;0.0469465
0.203592;-0.00597755;-0.0102874;0.0470101
0.204091;-0.00553442;-0.0102708;0.0465009
0.20459;-0.00505677;-0.0102501;0.0436362
0.205089;-0.00442712;-0.0097658;0.0450686
0.205588;-0.00393764;-0.00861078;0.0450686
0.206087;-0.00349751;-0.00842862;0.0471693
0.206586;-0.00296262;-0.00828786;0.0471375
0.207085;-0.00246128;-0.00809742;0.0472966
0.207584;-0.00204283;-0.00826302;0.0467874
0.208083;-0.00151388;-0.00793597;0.0476467
0.208582;-0.00106977;-0.00794425;0.0476467
0.209081;-0.000635549;-0.00723633;0.0476467
0.20958;-0.000153953;-0.00712043;0.0476467
0.210079;0.000323696;-0.00691343;0.0468828
0.210578;0.0008497;-0.00655742;0.0469465
0.211077;0.00121682;-0.00672714;0.0466282
0.211576;0.0017823;-0.00619726;0.0468828
0.212075;0.00222739;-0.00606893;0.0466282
0.212574;0.00266656;-0.00616828;0.0469783
0.213073;0.00322414;-0.00592817;0.0458006
0.213572;0.00375211;-0.0058578;0.0449413
0.214071;0.00428995;-0.00484358;0.0472011
0.21457;0.00470741;-0.00455379;0.0456096
0.215069;0.00525415;-0.00429297;0.0453869
0.215568;0.0057328;-0.00422259;0.0433499
0.216067;0.00615812;-0.00415221;0.0450686
0.216566;0.00669599;-0.00413151;0.0442728
0.217065;0.00712531;-0.00413151;0.0391484
0.217564;0.00758811;-0.00403215;0.0394349
0.218063;0.00814375;-0.00397006;0.0388301
0.218562;0.00869537;-0.00334081;0.0418221
0.219061;0.00922142;-0.00348986;0.0413128
0.21956;0.00963588;-0.00273641;0.0377798
0.220059;0.0102033;-0.00237211;0.0366658
0.220558;0.0107373;-0.00218167;0.0357109
0.221057;0.0111232;-0.00205748;0.0359656
0.221556;0.0116452;-0.0020492;0.0361884
0.222055;0.0121662;-0.00194984;0.0343105
0.222554;0.0125175;-0.00138269;0.0350426
0.223053;0.0130594;-0.000770002;0.0367614
0.223552;0.0135736;-0.000347743;0.0352017
0.224051;0.0140522;-0.000786561;0.033674
0.22455;0.0144963;-0.000194571;0.0349471
0.225049;0.0150706;-0.000190431;0.0359656
0.225548;0.01557;3.72582e-05;0.0363475
0.226047;0.0159904;0;0.0368886
0.226546;0.016473;0.000144893;0.0348516
0.227045;0.0169596;0.00042226;0.0322417
0.227544;0.0172566;0.00107635;0.0334193
0.228043;0.0176937;0.00187946;0.0363157
0.228542;0.0182365;0.0019871;0.0351699
0.229041;0.0187063;0.00207404;0.034597
0.22954;0.0190873;0.00220237;0.0366976
0.230039;0.0196755;0.00242592;0.0388302
0.230538;0.0202183;0.00309243;0.0432225
0.231037;0.020602;0.00353952;0.0401987
0.231536;0.0211114;0.00365543;0.0369204
0.232035;0.0217557;0.00413151;0.0376525
0.232534;0.022185;0.00412323;0.0434772
0.233033;0.0225927;0.00433851;0.0395622
0.233532;0.0231491;0.00445443;0.0415673
0.234031;0.0235993;0.00470281;0.0413128
0.23453;0.023989;0.00446684;0.0393713
0.235029;0.0244873;0.00500088;0.0411537
0.235528;0.0250254;0.00551423;0.0440818
0.236027;0.0254753;0.00544383;0.0446229
0.236526;0.0259392;0.00556801;0.0440182
0.237025;0.0264681;0.00599027;0.0401988
0.237524;0.0270722;0.00611861;0.0447821
0.238023;0.0274935;0.0061807;0.0458006
0.238522;0.0280491;0.00615172;0.0416311
0.239021;0.028515;0.00619726;0.039403
0.23952;0.0288957;0.00630489;0.0380345
0.240019;0.0294822;0.00681822;0.0368886
0.240518;0.0299114;0.00757582;0.0348834
0.241017;0.0302971;0.00787802;0.0352654
0.241516;0.0308569;0.00793183;0.0404852
0.242015;0.0314291;0.00826302;0.0428087
0.242514;0.0319366;0.00823404;0.0352654
0.243013;0.0324515;0.00837894;0.0404216
0.243512;0.0330031;0.00855695;0.0412492
0.244011;0.0334859;0.00964987;0.0439864
0.24451;0.03384;0.0100638;0.0452914
0.245009;0.0343849;0.00985683;0.0437954
0.245508;0.0348763;0.0102253;0.0436363
0.246007;0.0353104;0.0102211;0.0438909
0.246506;0.0358089;0.0105978;0.0456415
