t;vds;corrente;vg
0.000499;-0.00835002;-0.0122698;-0.0575511
0.000998;-0.00876445;-0.0124566;-0.0578633
0.001497;-0.00928851;-0.0124814;-0.0576724
0.001996;-0.0098392;-0.012763;-0.0554762
0.002495;-0.0103119;-0.0125684;-0.057004
0.002994;-0.0108063;-0.0130734;-0.0591046
0.003493;-0.0113857;-0.014096;-0.0619372
0.003992;-0.0118948;-0.0144396;-0.0625101
0.004491;-0.0123053;-0.0145224;-0.0601549
0.00499;-0.0127959;-0.0144644;-0.0547761
0.005489;-0.0133979;-0.0149571;-0.0576407
0.005988;-0.0138075;-0.0148453;-0.057195
0.006487;-0.0142822;-0.0154621;-0.0537894
0.006986;-0.0147677;-0.0151682;-0.053885
0.007485;-0.015266;-0.0154042;-0.0504795
0.007984;-0.0156874;-0.0160872;-0.0493973
0.008483;-0.0162036;-0.01605;-0.0490472
0.008982;-0.0166694;-0.0161783;-0.0502247
0.009481;-0.0171639;-0.0162156;-0.0503839
0.00998;-0.0176503;-0.0165012;-0.0540123
0.010479;-0.0180391;-0.016526;-0.0520389
0.010978;-0.0184586;-0.0164432;-0.0492381
0.011477;-0.0188385;-0.0168283;-0.0492699
0.011976;-0.0193626;-0.0176314;-0.0499383
0.012475;-0.0198867;-0.0180205;-0.0491745
0.012974;-0.0202735;-0.0184966;-0.0511159
0.013473;-0.0207817;-0.0184386;-0.0516251
0.013972;-0.0213324;-0.018331;-0.0497792
0.014471;-0.0219067;-0.0188195;-0.0569086
0.01497;-0.0223411;-0.0187988;-0.0553808
0.015469;-0.0228906;-0.0191714;-0.0537896
0.015968;-0.0233664;-0.0195439;-0.050543
0.016467;-0.0238706;-0.0200448;-0.0543305
0.016966;-0.0242051;-0.020285;-0.0491108
0.017465;-0.0247016;-0.0206741;-0.0504476
0.017964;-0.0251773;-0.0206368;-0.0506386
0.018463;-0.0256155;-0.0207569;-0.0551581
0.018962;-0.026107;-0.0211709;-0.0542669
0.019461;-0.0265845;-0.021324;-0.0513388
0.01996;-0.0270377;-0.0217505;-0.0543941
0.020459;-0.0275666;-0.0222142;-0.0554127
0.020958;-0.0281834;-0.0225454;-0.0553489
0.021457;-0.0286511;-0.0227151;-0.0562083
0.021956;-0.0290952;-0.0227193;-0.0545215
0.022455;-0.0296903;-0.0228642;-0.0560175
0.022954;-0.030226;-0.0228352;-0.0513069
0.023453;-0.0305369;-0.0229097;-0.0493972
0.023952;-0.0309428;-0.0230753;-0.0502884
0.024451;-0.0315209;-0.0236383;-0.0522619
0.02495;-0.0320224;-0.0241888;-0.0538214
0.025449;-0.0324368;-0.0244951;-0.0509249
0.025948;-0.0330209;-0.0247269;-0.052198
0.026447;-0.0335096;-0.0247849;-0.0516571
0.026946;-0.0339614;-0.0246979;-0.0494291
0.027445;-0.0345073;-0.0247352;-0.0511796
0.027944;-0.0350174;-0.024818;-0.04962
0.028443;-0.0355018;-0.0256585;-0.0541078
0.028942;-0.0359619;-0.0263375;-0.0545533
0.029441;-0.0364819;-0.0267929;-0.0541077
0.02994;-0.0369341;-0.026855;-0.0548715
0.030439;-0.0373475;-0.0271075;-0.0560173
0.030938;-0.0378035;-0.0272441;-0.0563676
0.031437;-0.0384075;-0.027211;-0.0548716
0.031936;-0.0388436;-0.0273766;-0.0546489
0.032435;-0.0392946;-0.027538;-0.0526754
0.032934;-0.0398472;-0.0284321;-0.0563992
0.033433;-0.0403389;-0.0281382;-0.0571631
0.033932;-0.040752;-0.0286971;-0.057959
0.034431;-0.0412731;-0.0289123;-0.0548398
0.03493;-0.0418528;-0.0288378;-0.0531211
0.035429;-0.0424377;-0.0292766;-0.0532802
0.035928;-0.042874;-0.0297569;-0.0553489
0.036427;-0.0434376;-0.030353;-0.0508614
0.036926;-0.0438342;-0.030647;-0.0548078
0.037425;-0.0443128;-0.030883;-0.0552218
0.037924;-0.0447372;-0.0308168;-0.0500975
0.038423;-0.0453178;-0.0309534;-0.0542032
0.038922;-0.0457746;-0.0309865;-0.0506067
0.039421;-0.0462232;-0.0309865;-0.0534711
0.03992;-0.0467072;-0.0311024;-0.0541397
0.040419;-0.047242;-0.0313135;-0.0516252
0.040918;-0.0476721;-0.0315329;-0.0537894
0.041417;-0.0481518;-0.0319261;-0.0542032
0.041916;-0.0487471;-0.0322449;-0.0550945
0.042415;-0.0490046;-0.0323318;-0.0555399
0.042914;-0.0484854;-0.0319054;-0.0567811
0.043413;-0.0481438;-0.0315701;-0.0560173
0.043912;-0.0476181;-0.031446;-0.0545215
0.044411;-0.0470634;-0.0310362;-0.0549034
0.04491;-0.0466201;-0.0309865;-0.0556036
0.045409;-0.0461465;-0.0309865;-0.0530574
0.045908;-0.0457084;-0.0309616;-0.0537895
0.046407;-0.0452575;-0.0310486;-0.0573859
0.046906;-0.04482;-0.0307422;-0.0524526
0.047405;-0.0443238;-0.0309741;-0.0554127
0.047904;-0.0436575;-0.0306222;-0.0530256
0.048403;-0.0432707;-0.0304649;-0.0519753
0.048902;-0.0428199;-0.0300094;-0.0532484
0.049401;-0.0421941;-0.0295291;-0.0538532
0.0499;-0.0417322;-0.0295581;-0.0585316
0.050399;-0.0412326;-0.0289165;-0.0531528
0.050898;-0.040704;-0.0288999;-0.055699
0.051397;-0.0401828;-0.0288502;-0.0576724
0.051896;-0.0397218;-0.028577;-0.0578634
0.052395;-0.0393136;-0.0283618;-0.0554444
0.052894;-0.0387321;-0.0277119;-0.0531211
0.053393;-0.0382722;-0.0269544;-0.0506067
0.053892;-0.0378017;-0.0269254;-0.0531212
0.054391;-0.0373426;-0.026855;-0.0542031
0.05489;-0.0368432;-0.0268591;-0.0522617
0.055389;-0.0363713;-0.0265528;-0.054044
0.055888;-0.0358613;-0.0265859;-0.055349
0.056387;-0.035344;-0.0265735;-0.0530893
0.056886;-0.0348368;-0.0259193;-0.0528346
0.057385;-0.0344215;-0.0251989;-0.0510204
0.057884;-0.0338332;-0.0252858;-0.0506067
0.058383;-0.0333012;-0.0249422;-0.0518162
0.058882;-0.032935;-0.0249422;-0.0537576
0.059381;-0.0324684;-0.0247807;-0.0585636
0.05988;-0.031972;-0.0245655;-0.0545851
0.060379;-0.0313956;-0.0239198;-0.0545216
0.060878;-0.0309891;-0.0239238;-0.0565902
0.061377;-0.0304768;-0.023216;-0.0562401
0.061876;-0.0299845;-0.0234603;-0.0602822
0.062375;-0.0295049;-0.0230049;-0.0561764
0.062874;-0.0290695;-0.022918;-0.0577041
0.063373;-0.0284319;-0.0226613;-0.057195
0.063872;-0.0279908;-0.0226737;-0.0578633
0.064371;-0.0275716;-0.0226737;-0.0607278
0.06487;-0.0269893;-0.0216222;-0.0539485
0.065369;-0.0264879;-0.0215393;-0.0557946
0.065868;-0.0260428;-0.0213199;-0.0578952
0.066367;-0.0256184;-0.0206492;-0.0579906
0.066866;-0.0250065;-0.0203139;-0.056654
0.067365;-0.0246107;-0.0205706;-0.0593273
0.067864;-0.0241716;-0.0192873;-0.058118
0.068363;-0.023616;-0.0186953;-0.0556036
0.068862;-0.0231235;-0.0191755;-0.0530574
0.069361;-0.0227092;-0.0188568;-0.0554126
0.06986;-0.0222363;-0.0187077;-0.0536303
0.070359;-0.0216246;-0.0186084;-0.0555399
0.070858;-0.0211834;-0.0184883;-0.0552216
0.071357;-0.0207698;-0.0183807;-0.0554445
0.071856;-0.0202607;-0.0182979;-0.0555082
0.072355;-0.0197682;-0.0183434;-0.0590092
0.072854;-0.0193557;-0.0170974;-0.0546807
0.073353;-0.0189383;-0.0165964;-0.0540759
0.073852;-0.0184437;-0.0165964;-0.0559219
0.074351;-0.0179987;-0.016526;-0.0524527
0.07485;-0.0175181;-0.0165012;-0.0537258
0.075349;-0.0170573;-0.0164681;-0.056081
0.075848;-0.0164868;-0.0159382;-0.0576088
0.076347;-0.0161236;-0.0157271;-0.0579906
0.076846;-0.0156686;-0.0161907;-0.059773
0.077345;-0.0150549;-0.0151765;-0.057927
0.077844;-0.0145723;-0.0145555;-0.0561447
0.078343;-0.0142249;-0.0146673;-0.0564311
0.078842;-0.0136545;-0.0144644;-0.0538213
0.079341;-0.0132192;-0.0143071;-0.0511478
0.07984;-0.0127238;-0.0139428;-0.0535667
0.080339;-0.0122768;-0.0138931;-0.053121
0.080838;-0.0116719;-0.0130113;-0.0509887
0.081337;-0.0112386;-0.0127837;-0.0502247
0.081836;-0.0107096;-0.0126139;-0.0520071
0.082335;-0.01008;-0.0123573;-0.0524845
0.082834;-0.00967246;-0.0122041;-0.0538532
0.083333;-0.00922238;-0.01244;-0.0536941
0.083832;-0.00864902;-0.0122455;-0.0493337
0.084331;-0.00819406;-0.0122662;-0.0494928
0.08483;-0.00766414;-0.0108628;-0.047774
0.085329;-0.00721312;-0.0106558;-0.0481241
0.085828;-0.00675321;-0.0105192;-0.0492381
0.086327;-0.00617591;-0.0103495;-0.049429
0.086826;-0.00579398;-0.0103412;-0.0505748
0.087325;-0.00527288;-0.0103288;-0.0516888
0.087824;-0.00469952;-0.0101549;-0.0489517
0.088323;-0.00424455;-0.0100597;-0.0507658
0.088822;-0.0037235;-0.00982373;-0.0499384
0.089321;-0.00315606;-0.00884676;-0.0486016
0.08982;-0.0026774;-0.00865218;-0.051466
0.090319;-0.00224515;-0.00830028;-0.0564947
0.090818;-0.00175961;-0.0082506;-0.0503521
0.091317;-0.00124643;-0.00825474;-0.0543306
0.091816;-0.000794435;-0.00819264;-0.0519116
0.092315;-0.000330604;-0.00789043;-0.0521981
0.092814;0.000159874;-0.00741021;-0.0513069
0.093313;0.000564493;-0.00726945;-0.0573859
0.093812;0.000998718;-0.00675612;-0.0547761
0.094311;0.00150598;-0.00619726;-0.0518797
0.09481;0.00197672;-0.00629661;-0.0563994
0.095309;0.00250471;-0.00616828;-0.0549353
0.095808;0.00297446;-0.0061807;-0.0550625
0.096307;0.00351428;-0.0058661;-0.054076
0.096806;0.00398402;-0.00600682;-0.0534074
0.097305;0.00451101;-0.0055142;-0.0503839
0.097804;0.00503507;-0.00515818;-0.0550625
0.098303;0.00550088;-0.00482702;-0.0508294
0.098802;0.00590353;-0.00483529;-0.0556035
0.099301;0.0064078;-0.00440888;-0.0522299
0.0998;0.00696148;-0.00418533;-0.0538212
0.100299;0.00743714;-0.00404872;-0.0529301
0.100798;0.00787824;-0.00382103;-0.0546805
0.101297;0.00844376;-0.00364302;-0.0556353
0.101796;0.00894802;-0.00404458;-0.0558583
0.102295;0.00941187;-0.00281094;-0.0515298
0.102794;0.0098994;-0.00332012;-0.052007
0.103293;0.0104658;-0.00311727;-0.0534076
0.103792;0.0109445;-0.00238039;-0.0544578
0.104291;0.011364;-0.00221479;-0.0569722
0.10479;0.0118948;-0.00220237;-0.0561764
0.105289;0.0124396;-0.00197468;-0.0542668
0.105788;0.0127653;-0.00163936;-0.0537896
0.106287;0.0133337;-0.00142823;-0.0497473
0.106786;0.0137601;-0.00140753;-0.0515615
0.107285;0.0142516;-0.000778282;-0.0519435
0.107784;0.0147184;-0.000182151;-0.0527392
0.108283;0.015269;-1.24194e-05;-0.0498746
0.108782;0.015867;0.000534035;-0.0510841
0.109281;0.016245;0.000695486;-0.05258
0.10978;0.0167494;0.00161866;-0.0501293
0.110279;0.0172576;0.00165592;-0.0494927
0.110778;0.0176009;0.00182979;-0.0522619
0.111277;0.0180322;0.00205334;-0.0499066
0.111776;0.0185356;0.00207404;-0.0514979
0.112275;0.0190231;0.00228931;-0.0535667
0.112774;0.0193774;0.00226447;-0.0571949
0.113273;0.0198611;0.00217753;-0.0582452
0.113772;0.0204984;0.00292685;-0.0570039
0.114271;0.0209249;0.00332011;-0.0604096
0.11477;0.021508;0.00399903;-0.0582135
0.115269;0.0220291;0.00406941;-0.0605368
0.115768;0.0225404;0.00400732;-0.0544259
0.116267;0.0228778;0.00403216;-0.058691
0.116766;0.0233654;0.00412323;-0.0561766
0.117265;0.0238825;0.00416049;-0.0523572
0.117764;0.024285;0.00475248;-0.050002
0.118263;0.0247015;0.005212;-0.05258
0.118762;0.0253894;0.00571292;-0.0527073
0.119261;0.0257843;0.00555975;-0.05258
0.11976;0.0262145;0.00616;-0.052039
0.120259;0.0266813;0.00615586;-0.0533756
0.120758;0.0272755;0.00630903;-0.0495882
0.121257;0.0276721;0.00627177;-0.0497792
0.121756;0.0281992;0.00625521;-0.0498109
0.122255;0.0287369;0.00655742;-0.0494928
0.122754;0.0291831;0.00671887;-0.0492381
0.123253;0.0296243;0.00673542;-0.0520708
0.123752;0.0301619;0.00750543;-0.0524526
0.124251;0.0307355;0.00740193;-0.0526118
0.12475;0.0312505;0.00798978;-0.0521981
0.125249;0.0316611;0.00826302;-0.0555718
0.125748;0.0322345;0.00826302;-0.0520389
0.126247;0.0326577;0.00830856;-0.0535349
0.126746;0.0330495;0.0084162;-0.0559219
0.127245;0.0336151;0.00865215;-0.0560811
0.127744;0.0341717;0.00936421;-0.0557628
0.128243;0.0346494;0.0097906;-0.0537894
0.128742;0.0351605;0.0102832;-0.0513388
0.129241;0.0356825;0.010217;-0.0538532
0.12974;0.0361365;0.0104364;-0.0531529
0.130239;0.0365274;0.0105151;-0.0493973
0.130738;0.037091;0.0110946;-0.0502567
0.131237;0.0375636;0.0107965;-0.04927
0.131736;0.0379782;0.0110408;-0.0495246
0.132235;0.0384776;0.0111153;-0.0507339
0.132734;0.0390192;0.0119681;-0.0532802
0.133233;0.0394713;0.0122952;-0.0564949
0.133732;0.039941;0.0121668;-0.0589137
0.134231;0.0405005;0.0123283;-0.0570039
0.13473;0.0410491;0.0122993;-0.0593274
0.135229;0.0414992;0.0128416;-0.0508932
0.135728;0.0419396;0.0125684;-0.0572267
0.136227;0.0425345;0.012912;-0.0558583
0.136726;0.043025;0.0136903;-0.0589454
0.137225;0.0434386;0.0141208;-0.0580543
0.137724;0.0439317;0.0142988;-0.0607914
0.138223;0.0444371;0.0144603;-0.0612689
0.138722;0.0448339;0.0145845;-0.0624783
0.139221;0.045297;0.0147294;-0.0594228
0.13972;0.0457697;0.0157891;-0.056654
0.140219;0.046239;0.0163729;-0.0535984
0.140718;0.0466706;0.016526;-0.0590409
0.141217;0.0471828;0.016762;-0.0584998
0.141716;0.047755;0.016642;-0.0609824
0.142215;0.0481527;0.017325;-0.0604732
0.142714;0.0479829;0.0166875;-0.0579271
0.143213;0.0475264;0.0163853;-0.062351
0.143712;0.0469746;0.016526;-0.0565266
0.144211;0.0464433;0.0165964;-0.0572904
0.14471;0.0460401;0.0163522;-0.0575451
0.145209;0.045594;0.016112;-0.0602822
0.145708;0.0450678;0.0158595;-0.059964
0.146207;0.0447015;0.0155201;-0.057386
0.146706;0.0442379;0.0148743;-0.05885
0.147205;0.0437454;0.0144851;-0.062351
0.147704;0.0432588;0.0146714;-0.0572905
0.148203;0.0427843;0.014481;-0.0569721
0.148702;0.0423086;0.0140008;-0.0592956
0.149201;0.0417391;0.0132059;-0.0561447
0.1497;0.0412859;0.0130652;-0.0509249
0.150199;0.0408026;0.0123697;-0.0576406
0.150698;0.040251;0.0121378;-0.0542351
0.151197;0.0397327;0.0120757;-0.0562719
0.151696;0.0393165;0.0114341;-0.0570358
0.152195;0.0387942;0.0118729;-0.0553172
0.152694;0.0382732;0.0116121;-0.0567812
0.153193;0.037843;0.0103495;-0.0592318
0.153692;0.0374393;0.0105647;-0.0542668
0.154191;0.0369479;0.0102335;-0.0550308
0.15469;0.0364345;0.0100969;-0.0541079
0.155189;0.0360034;0.00970786;-0.0532165
0.155688;0.035491;0.00985685;-0.0514024
0.156187;0.0349089;0.00891714;-0.0532485
0.156686;0.0344935;0.0085611;-0.0496518
0.157185;0.0340058;0.00826302;-0.0502885
0.157684;0.0334257;0.00826302;-0.0536621
0.158183;0.032934;0.00826302;-0.04962
0.158682;0.0324753;0.00818022;-0.0494928
0.159181;0.0320066;0.00817608;-0.0482196
0.15968;0.0314508;0.00812226;-0.0496518
0.160179;0.030995;0.00810985;-0.0536621
0.160678;0.0305626;0.00799807;-0.0527074
0.161177;0.0299746;0.00758823;-0.0547761
0.161676;0.0295434;0.00649946;-0.0582453
0.162175;0.0290251;0.00643736;-0.0578316
0.162674;0.0285465;0.00628833;-0.0577042
0.163173;0.0280352;0.00632972;-0.0573224
0.163672;0.0275814;0.00614344;-0.0552218
0.164171;0.0270475;0.00600269;-0.0534393
0.16467;0.0265648;0.00606065;-0.0511797
0.165169;0.0260339;0.00606478;-0.0505112
0.165668;0.0255888;0.00567566;-0.0506067
0.166167;0.0250835;0.00560114;-0.0494928
0.166666;0.0245929;0.00545627;-0.0509885
0.167165;0.0241667;0.00534449;-0.0485061
0.167664;0.0237562;0.00459932;-0.0514978
0.168163;0.0232123;0.00468626;-0.0482833
0.168662;0.022801;0.00413151;-0.0502248
0.169161;0.0223705;0.00413151;-0.0493654
0.16966;0.0218397;0.00382931;-0.047965
0.170159;0.0212495;0.0038914;-0.0482833
0.170658;0.0208527;0.00317937;-0.0482832
0.171157;0.0203012;0.00295581;-0.0486652
0.171656;0.0197524;0.00307587;-0.048156
0.172155;0.0192768;0.00231001;-0.0485379
0.172654;0.0188751;0.00221479;-0.0478695
0.173153;0.0183747;0.00215269;-0.0489835
0.173652;0.0178546;0.00197468;-0.0480923
0.174151;0.0174845;0.00174699;-0.0489517
0.17465;0.0170583;0.00134543;-0.0492381
0.175149;0.0165332;0.000591992;-0.0493655
0.175648;0.0161276;0.000683067;-0.0507976
0.176147;0.0157081;0.000451239;-0.0542031
0.176646;0.0151141;0;-0.0558265
0.177145;0.0145575;0;-0.0535348
0.177644;0.0141894;-7.03766e-05;-0.0529619
0.178143;0.0136574;-0.000219409;-0.0539168
0.178642;0.013162;-0.000703766;-0.0568131
0.179141;0.0126824;-0.000757583;-0.0523572
0.17964;0.0122866;-0.00193742;-0.0497792
0.180139;0.0116936;-0.00208646;-0.0576087
0.180638;0.0111705;-0.00213613;-0.0550624
0.181137;0.0108478;-0.00221065;-0.0547443
0.181636;0.0102507;-0.00234312;-0.0486652
0.182135;0.00976029;-0.00244662;-0.0500338
0.182634;0.00927371;-0.00351883;-0.0545851
0.183133;0.00874374;-0.00325802;-0.0505431
0.183632;0.00826414;-0.00360162;-0.0501611
0.184131;0.00773418;-0.00413151;-0.0493336
0.18463;0.007222;-0.00411081;-0.049429
0.185129;0.00677295;-0.00447511;-0.0503839
0.185628;0.00623907;-0.00481874;-0.0510841
0.186127;0.00587688;-0.00465314;-0.0510205
0.186626;0.00535973;-0.00497188;-0.0500338
0.187125;0.00484363;-0.00561769;-0.051275
0.187624;0.00428106;-0.00551423;-0.051116
0.188123;0.00385277;-0.00573774;-0.0521343
0.188622;0.0033258;-0.00604822;-0.050002
0.189121;0.00274154;-0.00619726;-0.0500656
0.18962;0.00233299;-0.00618898;-0.0504794
0.190119;0.00185237;-0.00619726;-0.0536939
0.190618;0.00129577;-0.00625107;-0.0500338
0.191117;0.000902005;-0.00669817;-0.0510842
0.191616;0.000446068;-0.00697141;-0.0481878
0.192115;-4.04621e-05;-0.00742263;-0.0478059
0.192614;-0.00050232;-0.00764619;-0.0497155
0.193113;-0.000978981;-0.00756338;-0.0500019
0.193612;-0.00141815;-0.008085;-0.0518479
0.194111;-0.00191651;-0.00824646;-0.050193
0.19461;-0.00242378;-0.00836652;-0.0505749
0.195109;-0.00285604;-0.00880532;-0.0489517
0.195608;-0.00341264;-0.00955052;-0.0510842
0.196107;-0.00392875;-0.00996446;-0.0526119
0.196606;-0.0043916;-0.0099024;-0.0491427
0.197105;-0.00490085;-0.0103163;-0.0502885
0.197604;-0.00549693;-0.0102874;-0.0505112
0.198103;-0.00596273;-0.0105358;-0.0513705
0.198602;-0.00647492;-0.011107;-0.0496519
0.199101;-0.00694865;-0.0113058;-0.0491745
0.1996;-0.00744701;-0.0120468;-0.0503839
0.200099;-0.00789501;-0.0120302;-0.0476786
0.200598;-0.00832831;-0.0121792;-0.0496201
0.201097;-0.00891348;-0.0123283;-0.0499701
0.201596;-0.00940297;-0.0124069;-0.0530892
0.202095;-0.00981946;-0.0125104;-0.0486334
0.202594;-0.0103513;-0.0128002;-0.0514979
0.203093;-0.0109346;-0.0127381;-0.049811
0.203592;-0.011362;-0.0129865;-0.0505431
0.204091;-0.0119501;-0.0136572;-0.0513387
0.20459;-0.0125146;-0.0138393;-0.0534711
0.205089;-0.0129696;-0.0142078;-0.0532166
0.205588;-0.0134364;-0.0145431;-0.0543941
0.206087;-0.0139595;-0.0147873;-0.05554
0.206586;-0.014367;-0.014986;-0.0548078
0.207085;-0.0148151;-0.0157767;-0.0560493
0.207584;-0.015263;-0.0159837;-0.0529301
0.208083;-0.015791;-0.0164639;-0.0589772
0.208582;-0.0162519;-0.0165136;-0.0553809
0.209081;-0.0166833;-0.0165633;-0.0567177
0.20958;-0.0172388;-0.0165716;-0.0512751
0.210079;-0.0177144;-0.0169483;-0.0554446
0.210578;-0.0181368;-0.0171884;-0.0556354
0.211077;-0.0186402;-0.017412;-0.0528983
0.211576;-0.0190912;-0.0180081;-0.0511797
0.212075;-0.0195155;-0.0184304;-0.0545215
0.212574;-0.0199203;-0.0176438;-0.0501929
0.213073;-0.020458;-0.0181033;-0.0500019
0.213572;-0.0208745;-0.0185132;-0.0502566
0.214071;-0.0213857;-0.0188029;-0.0498746
0.21457;-0.021886;-0.0187864;-0.0525482
0.215069;-0.0224329;-0.0191548;-0.0484743
0.215568;-0.0229202;-0.0193701;-0.0484106
0.216067;-0.0233121;-0.0203967;-0.0490472
0.216566;-0.0238766;-0.0206492;-0.048347
0.217065;-0.0243679;-0.0206161;-0.0512114
0.217564;-0.0247381;-0.0204505;-0.0500656
0.218063;-0.0252385;-0.0206617;-0.0512114
0.218562;-0.0257863;-0.0210467;-0.0500974
0.219061;-0.0261602;-0.0219907;-0.0492062
0.21956;-0.0266418;-0.0224171;-0.0484742
0.220059;-0.0272232;-0.0222473;-0.0492381
0.220558;-0.0276504;-0.0222473;-0.0479968
0.221057;-0.0281162;-0.0227151;-0.0531211
0.221556;-0.0287073;-0.0227234;-0.0490153
0.222055;-0.0292888;-0.0227234;-0.0488244
0.222554;-0.0297051;-0.0228062;-0.0516251
0.223053;-0.0301619;-0.0228228;-0.058118
0.223552;-0.0306406;-0.0228476;-0.0552853
0.224051;-0.0311282;-0.023038;-0.0521981
0.22455;-0.0315762;-0.0230421;-0.0506385
0.225049;-0.0321259;-0.0238577;-0.0520389
0.225548;-0.0326015;-0.0245613;-0.0496201
0.226047;-0.0330515;-0.0246524;-0.0506384
0.226546;-0.0335057;-0.0245324;-0.0510204
0.227045;-0.0340295;-0.0245406;-0.049811
0.227544;-0.0345399;-0.024789;-0.0528029
0.228043;-0.0349908;-0.0248263;-0.0532803
0.228542;-0.0355531;-0.0250789;-0.0527391
0.229041;-0.0360161;-0.0254101;-0.0524845
0.22954;-0.0364711;-0.026114;-0.0545214
0.230039;-0.0369815;-0.0266066;-0.0563992
0.230538;-0.037466;-0.0259193;-0.0524528
0.231037;-0.0379694;-0.0264245;-0.0541713
0.231536;-0.0383621;-0.0268716;-0.0528984
0.232035;-0.038961;-0.0273724;-0.054808
0.232534;-0.0393904;-0.0271737;-0.0496201
0.233033;-0.039783;-0.0275835;-0.0483788
0.233532;-0.0402462;-0.0280389;-0.0498747
0.234031;-0.0408478;-0.028784;-0.0509887
0.23453;-0.0413047;-0.0286143;-0.0485379
0.235029;-0.0417847;-0.0289206;-0.0479968
0.235528;-0.0423499;-0.0292725;-0.0499064
0.236027;-0.0429214;-0.0294589;-0.0485698
0.236526;-0.043408;-0.0304814;-0.0506704
0.237025;-0.0438696;-0.0307422;-0.0502566
0.237524;-0.0444135;-0.0309865;-0.0511796
0.238023;-0.0448744;-0.0309865;-0.0521662
0.238522;-0.0453217;-0.0309865;-0.0512115
0.239021;-0.0459047;-0.0311976;-0.0524209
0.23952;-0.0462765;-0.0311562;-0.051116
0.240019;-0.046715;-0.0311769;-0.0508931
0.240518;-0.0472084;-0.0314211;-0.0494609
0.241017;-0.0477668;-0.0314708;-0.0487607
