t;vds;corrente;vg
0.000499;-0.01015;-0.0122119;-0.137503
0.000998;-0.00951849;-0.012349;-0.135619
0.001497;-0.00909901;-0.0117611;-0.134951
0.001996;-0.00866974;-0.0115748;-0.141348
0.002495;-0.00811411;-0.0106103;-0.136542
0.002994;-0.00762368;-0.0110201;-0.134505
0.003493;-0.00720227;-0.0107759;-0.136892
0.003992;-0.00669794;-0.010515;-0.13877
0.004491;-0.00611177;-0.0103909;-0.135619
0.00499;-0.00558969;-0.0102418;-0.135428
0.005489;-0.00511499;-0.0099976;-0.135365
0.005988;-0.00459194;-0.0101383;-0.133391
0.006487;-0.00410837;-0.00971194;-0.137497
0.006986;-0.0035656;-0.00915721;-0.137179
0.007485;-0.00312151;-0.00877637;-0.13406
0.007984;-0.00255898;-0.0084576;-0.131004
0.008483;-0.00218495;-0.00826302;-0.133805
0.008982;-0.00171224;-0.00819678;-0.134887
0.009481;-0.001203;-0.008292;-0.135301
0.00998;-0.000693774;-0.00811812;-0.135174
0.010479;-0.000342446;-0.00713284;-0.134951
0.010978;0.000277313;-0.00673957;-0.136542
0.011477;0.000844766;-0.00654914;-0.136319
0.011976;0.00126025;-0.00628005;-0.136224
0.012475;0.00160565;-0.0061393;-0.138038
0.012974;0.00213659;-0.00619726;-0.142813
0.013473;0.00261623;-0.00623865;-0.142112
0.013972;0.0030465;-0.00606065;-0.139216
0.014471;0.00361;-0.0059613;-0.136479
0.01497;0.00411132;-0.00543143;-0.136956
0.015469;0.0045643;-0.00580813;-0.140839
0.015968;0.0051081;-0.00455378;-0.136892
0.016467;0.00560352;-0.00434679;-0.138261
0.016966;0.00616306;-0.00422259;-0.137784
0.017465;0.0064996;-0.00410253;-0.137211
0.017964;0.00708091;-0.00406527;-0.136447
0.018463;0.00756345;-0.00370097;-0.133391
0.018962;0.00797101;-0.0035685;-0.134537
0.019461;0.00850493;-0.00267018;-0.131832
0.01996;0.00908522;-0.00222307;-0.132023
0.020459;0.009551;-0.0020699;-0.133264
0.020958;0.0100109;-0.00206576;-0.136351
0.021457;0.0105359;-0.0020285;-0.13371
0.021956;0.0110343;-0.00196226;-0.134187
0.022455;0.0115002;-0.00137027;-0.134314
0.022954;0.0119264;-0.00081968;-0.133328
0.023453;0.0125008;-0.000409841;-0.134219
0.023952;0.0129577;0;-0.132818
0.024451;0.0133929;-0.000178011;-0.132818
0.02495;0.0139733;-9.52154e-05;-0.13094
0.025449;0.0144746;0.000144893;-0.13441
0.025948;0.0149798;0.000339464;-0.131704
0.026447;0.0153982;0.00021113;-0.132054
0.026946;0.0159361;0.000567153;-0.132118
0.027445;0.0163191;0.000608551;-0.136065
0.027944;0.0167711;0.000985271;-0.136001
0.028443;0.0172537;0.00112602;-0.135142
0.028942;0.0177736;0.0012171;-0.140234
0.029441;0.0181724;0.00163936;-0.135428
0.02994;0.0186323;0.00200366;-0.133296
0.030439;0.0190892;0.00219409;-0.140521
0.030938;0.0195945;0.00281506;-0.135269
0.031437;0.0200535;0.00378377;-0.131768
0.031936;0.0204895;0.00329527;-0.137688
0.032435;0.0210926;0.00393694;-0.133328
0.032934;0.0215505;0.00411081;-0.135492
0.033433;0.0220162;0.00406527;-0.138898
0.033932;0.0225177;0.00413979;-0.140489
0.034431;0.0230406;0.00442958;-0.136224
0.03493;0.0233851;0.00465315;-0.140553
0.035429;0.0238923;0.00536105;-0.14033
0.035928;0.024434;0.00511265;-0.138229
0.036427;0.0248734;0.00575845;-0.138516
0.036926;0.0253213;0.00600269;-0.139216
0.037425;0.0258346;0.00589092;-0.139566
0.037924;0.0263358;0.00614758;-0.139375
0.038423;0.0268384;0.00625521;-0.138293
0.038922;0.027309;0.00623037;-0.139916
0.039421;0.0279059;0.00755511;-0.138548
0.03992;0.0283057;0.00786559;-0.140171
0.040419;0.0287941;0.00821748;-0.137338
0.040918;0.0293095;0.00813054;-0.141317
0.041417;0.0297199;0.00826302;-0.138802
0.041916;0.0301314;0.00826302;-0.136797
0.042415;0.0306891;0.00826302;-0.142112
0.042914;0.0312781;0.0083334;-0.140489
0.043413;0.0317263;0.00868529;-0.140139
0.043912;0.0323055;0.00869358;-0.14103
0.044411;0.0328313;0.00983199;-0.141158
0.04491;0.0332678;0.0102211;-0.139948
0.045409;0.0337059;0.00973263;-0.141826
0.045908;0.0342428;0.00999344;-0.142717
0.046407;0.034748;0.0101632;-0.141221
0.046906;0.0351328;0.0104074;-0.140203
0.047405;0.0356786;0.0103536;-0.139757
0.047904;0.0361789;0.0103288;-0.13998
0.048403;0.0366686;0.010602;-0.135015
0.048902;0.0371778;0.0109249;-0.136924
0.049401;0.0376998;0.0116866;-0.140107
0.0499;0.0382269;0.0121378;-0.139757
0.050399;0.0385999;0.0122165;-0.138802
0.050898;0.0391426;0.0123862;-0.139662
0.051397;0.0396666;0.0123407;-0.139343
0.051896;0.0400921;0.0126305;-0.140616
0.052395;0.0405686;0.0133094;-0.141285
0.052894;0.041131;0.0138849;-0.136924
0.053393;0.0416682;0.0142864;-0.132213
0.053892;0.0420225;0.0143154;-0.134919
0.054391;0.0424939;0.0144396;-0.136192
0.05489;0.0430379;0.0143568;-0.137943
0.055389;0.043478;0.0147625;-0.135428
0.055888;0.043913;0.0150274;-0.135365
0.056387;0.0445122;0.0152055;-0.13877
0.056886;0.0449406;0.0151392;-0.140457
0.057385;0.0453661;0.0156774;-0.136861
0.057884;0.045947;0.0163025;-0.134155
0.058383;0.0464415;0.0165053;-0.133359
0.058882;0.0468306;0.0164184;-0.130877
0.059381;0.0473642;0.0165757;-0.131641
0.05988;0.0478468;0.016849;-0.131131
0.060379;0.0482258;0.0176562;-0.12884
0.060878;0.0479;0.0173706;-0.128935
0.061377;0.0474523;0.0175486;-0.128012
0.061876;0.0470121;0.0165302;-0.131131
0.062375;0.046466;0.0164639;-0.131386
0.062874;0.0459701;0.0155408;-0.139916
0.063373;0.0456078;0.0158264;-0.134855
0.063872;0.0451478;0.0151268;-0.137147
0.064371;0.0446196;0.0153545;-0.133709
0.06487;0.0441767;0.0153669;-0.130972
0.065369;0.0438184;0.0151019;-0.129731
0.065868;0.0432055;0.0144106;-0.133773
0.066367;0.0426996;0.0143527;-0.136892
0.066866;0.0422355;0.0137151;-0.136447
0.067365;0.0417707;0.0140422;-0.132723
0.067864;0.041199;0.0132349;-0.132786
0.068363;0.0407138;0.0127754;-0.132404
0.068862;0.0402786;0.0124152;-0.132977
0.069361;0.0397237;0.0123034;-0.136924
0.06986;0.0393658;0.0123159;-0.130081
0.070359;0.0388613;0.0114631;-0.138007
0.070858;0.0383285;0.011136;-0.138802
0.071357;0.0378372;0.0110574;-0.13877
0.071856;0.0374432;0.0109994;-0.141953
0.072355;0.0369884;0.0105399;-0.140234
0.072854;0.0365016;0.0106185;-0.134728
0.073353;0.0359067;0.0104033;-0.136192
0.073852;0.0354358;0.00987753;-0.138134
0.074351;0.0348822;0.00988585;-0.135365
0.07485;0.0343731;0.00996446;-0.132627
0.075349;0.0338706;0.00895854;-0.136351
0.075848;0.033397;0.008706;-0.134473
0.076347;0.0329824;0.00846174;-0.137083
0.076846;0.0324772;0.008292;-0.137115
0.077345;0.0320885;0.00833754;-0.132659
0.077844;0.0315938;0.00826302;-0.136033
0.078343;0.0310542;0.00790699;-0.131768
0.078842;0.0304866;0.00819678;-0.135715
0.079341;0.0300644;0.00794011;-0.13737
0.07984;0.029408;0.00741849;-0.136192
0.080339;0.0289442;0.00694656;-0.135015
0.080838;0.0284596;0.0067644;-0.136097
0.081337;0.0279406;0.00637113;-0.136606
0.081836;0.0274847;0.00613516;-0.137306
0.082335;0.0270041;0.00619726;-0.13546
0.082834;0.0265362;0.00579157;-0.133137
0.083333;0.0259756;0.00548521;-0.137656
0.083832;0.0255306;0.00594059;-0.133296
0.084331;0.0250361;0.00546867;-0.136542
0.08483;0.0245101;0.00494294;-0.142081
0.085329;0.0240838;0.00498846;-0.136129
0.085828;0.0236378;0.00477734;-0.133869
0.086327;0.023156;0.00422673;-0.135428
0.086826;0.0227022;0.00415221;-0.132436
0.087325;0.0221811;0.00406527;-0.134314
0.087824;0.0217449;0.00404043;-0.130176
0.088323;0.0211804;0.0036099;-0.129858
0.088822;0.0206415;0.00244662;-0.135651
0.089321;0.0202272;0.00278195;-0.135587
0.08982;0.0197278;0.00210715;-0.136924
0.090319;0.0192817;0.00205748;-0.140521
0.090818;0.0187715;0.00216097;-0.139184
0.091317;0.0184092;0.00201608;-0.135747
0.091816;0.0178684;0.00202436;-0.135938
0.092315;0.0174116;0.00147376;-0.138802
0.092814;0.0169191;0.00154;-0.135078
0.093313;0.0165796;0.000749303;-0.136097
0.093812;0.0159696;0.000865217;-0.133614
0.094311;0.0154456;0.000281506;-0.138993
0.09481;0.0149997;8.27961e-06;-0.14068
0.095309;0.0145318;-0.000293926;-0.137402
0.095808;0.0140986;-0.000658228;-0.140171
0.096307;0.0136949;-0.000476078;-0.132659
0.096806;0.0131363;-0.00154828;-0.13511
0.097305;0.0126093;-0.00192086;-0.135842
0.097804;0.0121436;-0.00204506;-0.131641
0.098303;0.011735;-0.00215269;-0.130272
0.098802;0.0111922;-0.00218995;-0.133009
0.099301;0.0106415;-0.00235554;-0.132882
0.0998;0.0102428;-0.0024342;-0.130654
0.100299;0.00972873;-0.0036513;-0.137625
0.100798;0.00918093;-0.00318766;-0.136192
0.101297;0.00864409;-0.00284405;-0.136702
0.101796;0.00819011;-0.00286474;-0.133678
0.102295;0.00772727;-0.00338221;-0.135142
0.102794;0.00717068;-0.00356023;-0.134951
0.103293;0.00676999;-0.00373823;-0.136033
0.103792;0.0062894;-0.00426399;-0.136447
0.104291;0.00573575;-0.00419775;-0.134951
0.10479;0.00529558;-0.00431367;-0.133009
0.105289;0.00484362;-0.00507954;-0.134251
0.105788;0.00426528;-0.00590333;-0.134983
0.106287;0.00372448;-0.00615586;-0.136638
0.106786;0.00319356;-0.00610204;-0.136033
0.107285;0.00274352;-0.00618898;-0.131036
0.107784;0.00216817;-0.00625107;-0.128139
0.108283;0.00171126;-0.00645392;-0.131259
0.108782;0.00134216;-0.00668575;-0.133009
0.109281;0.000841805;-0.00683891;-0.134983
0.10978;0.000444094;-0.00744747;-0.132659
0.110279;4.04621e-05;-0.00812227;-0.13145
0.110778;-0.000501333;-0.00821748;-0.130367
0.111277;-0.00100069;-0.00808086;-0.133296
0.111776;-0.00157703;-0.00830028;-0.133423
0.112275;-0.00198165;-0.00854868;-0.13094
0.112774;-0.00253629;-0.00868941;-0.132436
0.113273;-0.00302775;-0.00886743;-0.134282
0.113772;-0.00342053;-0.00922346;-0.131513
0.114271;-0.00396427;-0.00946769;-0.133232
0.11477;-0.00452385;-0.00973265;-0.138484
0.115269;-0.00495908;-0.00989409;-0.13702
0.115768;-0.00538541;-0.0103039;-0.139598
0.116267;-0.00599035;-0.0106641;-0.139439
0.116766;-0.00652723;-0.0105564;-0.141444
0.117265;-0.00698813;-0.0105564;-0.139662
0.117764;-0.00752003;-0.011492;-0.138229
0.118263;-0.00804406;-0.0122869;-0.135205
0.118762;-0.00854735;-0.0121958;-0.132023
0.119261;-0.00892927;-0.0123945;-0.13877
0.11976;-0.00945527;-0.0126595;-0.142781
0.120259;-0.010006;-0.0128168;-0.142622
0.120758;-0.0104471;-0.0133301;-0.14189
0.121257;-0.0109554;-0.013711;-0.142399
0.121756;-0.011514;-0.0138186;-0.140107
0.122255;-0.0119708;-0.0141374;-0.142208
0.122754;-0.012405;-0.0141125;-0.140998
0.123253;-0.0129419;-0.0143278;-0.141508
0.123752;-0.0135015;-0.0143609;-0.141508
0.124251;-0.0139131;-0.0145845;-0.141253
0.12475;-0.0143443;-0.014452;-0.140203
0.125249;-0.0149196;-0.015193;-0.142112
0.125748;-0.0153963;-0.0157685;-0.140489
0.126247;-0.0159203;-0.0163977;-0.14068
0.126746;-0.0164345;-0.0165178;-0.140839
0.127245;-0.0168352;-0.0164639;-0.13546
0.127744;-0.017225;-0.0166834;-0.137465
0.128243;-0.0177055;-0.0168945;-0.140362
0.128742;-0.0181852;-0.0170849;-0.138325
0.129241;-0.0185958;-0.0172215;-0.138261
0.12974;-0.0191149;-0.0171553;-0.137815
0.130239;-0.0195294;-0.0179584;-0.14068
0.130738;-0.0200585;-0.0179502;-0.140012
0.131237;-0.0205191;-0.018182;-0.139343
0.131736;-0.0210689;-0.0184676;-0.140266
0.132235;-0.0216304;-0.0186663;-0.141285
0.132734;-0.0220113;-0.0190472;-0.142749
0.133233;-0.0224477;-0.0189561;-0.139916
0.133732;-0.0229823;-0.0194032;-0.140839
0.134231;-0.0233693;-0.0193286;-0.139916
0.13473;-0.0238469;-0.0206203;-0.141476
0.135229;-0.0243551;-0.020525;-0.139789
0.135728;-0.0248852;-0.0206617;-0.141953
0.136227;-0.0253302;-0.0209059;-0.141158
0.136726;-0.0257369;-0.0208769;-0.139693
0.137225;-0.0262668;-0.0211212;-0.139916
0.137724;-0.0267514;-0.0212288;-0.137561
0.138223;-0.0272449;-0.0213531;-0.135587
0.138722;-0.027754;-0.0218168;-0.137338
0.139221;-0.0283038;-0.0218747;-0.133869
0.13972;-0.0287329;-0.0226779;-0.137306
0.140219;-0.0293026;-0.0226986;-0.136542
0.140718;-0.0298571;-0.0228228;-0.138229
0.141217;-0.0301827;-0.023009;-0.138229
0.141716;-0.0306486;-0.0234188;-0.139311
0.142215;-0.0311746;-0.0244206;-0.140998
0.142714;-0.0316661;-0.0245613;-0.141921
0.143213;-0.0320905;-0.0246897;-0.141094
0.143712;-0.032636;-0.0248842;-0.141476
0.144211;-0.0332372;-0.0251037;-0.142017
0.14471;-0.033699;-0.0251202;-0.142303
0.145209;-0.0341598;-0.0252403;-0.136001
0.145708;-0.0346957;-0.0256543;-0.139757
0.146207;-0.035194;-0.0264327;-0.140362
0.146706;-0.0355502;-0.0257164;-0.137561
0.147205;-0.0360685;-0.0267763;-0.139502
0.147704;-0.0366222;-0.0268467;-0.135237
0.148203;-0.037015;-0.0268633;-0.13616
0.148702;-0.0375301;-0.0271986;-0.135587
0.149201;-0.0380453;-0.0271448;-0.132564
0.1497;-0.0385565;-0.0271654;-0.133168
0.150199;-0.038956;-0.0271862;-0.136256
0.150698;-0.0394822;-0.0275794;-0.138388
0.151197;-0.0399943;-0.0278236;-0.139948
0.151696;-0.0404256;-0.0279312;-0.135492
0.152195;-0.0408675;-0.0284735;-0.13912
0.152694;-0.0413995;-0.0279685;-0.137433
0.153193;-0.0419535;-0.0288254;-0.138738
0.153692;-0.042413;-0.0284073;-0.136288
0.154191;-0.0429845;-0.0289206;-0.139821
0.15469;-0.0435254;-0.0292435;-0.137433
0.155189;-0.0439279;-0.0289206;-0.132245
0.155688;-0.0444007;-0.0289869;-0.135428
0.156187;-0.044903;-0.0298976;-0.134633
0.156686;-0.0453583;-0.0301378;-0.137879
0.157185;-0.0458091;-0.0308002;-0.137879
0.157684;-0.0462686;-0.0304234;-0.13702
0.158183;-0.0467802;-0.0309741;-0.135301
0.158682;-0.047317;-0.0309865;-0.138006
0.159181;-0.0477511;-0.0310072;-0.136924
0.15968;-0.0483789;-0.0310858;-0.138675
0.160179;-0.0488752;-0.0313301;-0.134919
0.160678;-0.0488262;-0.031181;-0.132468
0.161177;-0.0483659;-0.0313425;-0.134951
0.161676;-0.047902;-0.031061;-0.133487
0.162175;-0.047404;-0.0308044;-0.132182
0.162674;-0.0469163;-0.0309741;-0.13355
0.163173;-0.0463979;-0.0302578;-0.135651
0.163672;-0.045977;-0.0298065;-0.134155
0.164171;-0.0454874;-0.0306222;-0.135428
0.16467;-0.0449967;-0.0305725;-0.13024
0.165169;-0.0445752;-0.0297692;-0.1325
0.165668;-0.0440712;-0.0292062;-0.129922
0.166167;-0.0435421;-0.029525;-0.131736
0.166666;-0.0431029;-0.0294587;-0.132086
0.167165;-0.0425583;-0.0289206;-0.132755
0.167664;-0.0419188;-0.028904;-0.128235
0.168163;-0.0414547;-0.0288999;-0.130367
0.168662;-0.0409988;-0.0284901;-0.131545
0.169161;-0.0404712;-0.027567;-0.135333
0.16966;-0.0399557;-0.0277368;-0.13546
0.170159;-0.0394742;-0.0269295;-0.129858
0.170658;-0.0390667;-0.0267888;-0.129508
0.171157;-0.0385041;-0.0266769;-0.128935
0.171656;-0.037995;-0.0267349;-0.127885
0.172155;-0.0376605;-0.0267805;-0.129476
0.172654;-0.0370999;-0.0261636;-0.129222
0.173153;-0.0365855;-0.0258365;-0.128585
0.173652;-0.0361543;-0.0254101;-0.132436
0.174151;-0.03557;-0.0255673;-0.135969
0.17465;-0.0350717;-0.0251575;-0.136288
0.175149;-0.034679;-0.0249712;-0.140807
0.175648;-0.0341588;-0.0248636;-0.140776
0.176147;-0.0336971;-0.0248263;-0.142558
0.176646;-0.0331619;-0.024789;-0.141699
0.177145;-0.0327644;-0.02476;-0.14259
0.177644;-0.0322267;-0.0246524;-0.142176
0.178143;-0.0317261;-0.0246607;-0.142717
0.178642;-0.0312871;-0.023572;-0.141953
0.179141;-0.0308162;-0.0235141;-0.142367
0.17964;-0.0302992;-0.0228145;-0.141667
0.180139;-0.0298089;-0.0227607;-0.141189
0.180638;-0.0293478;-0.0225827;-0.141317
0.181137;-0.0288002;-0.0226944;-0.139502
0.181636;-0.0281773;-0.0213158;-0.139662
0.182135;-0.0277343;-0.0211336;-0.141826
0.182634;-0.0273269;-0.0208769;-0.142463
0.183133;-0.0267819;-0.0206617;-0.142303
0.183632;-0.0262856;-0.020463;-0.139248
0.184131;-0.0258868;-0.0205375;-0.13877
0.18463;-0.0253708;-0.0203222;-0.140298
0.185129;-0.0248308;-0.0199165;-0.13807
0.185628;-0.024444;-0.019722;-0.139884
0.186127;-0.0239871;-0.0197261;-0.13807
0.186626;-0.0234314;-0.0189602;-0.140489
0.187125;-0.0230032;-0.0190141;-0.140744
0.187624;-0.0225759;-0.0188402;-0.142654
0.188123;-0.0220292;-0.0186001;-0.142494
0.188622;-0.0215209;-0.0186663;-0.141094
0.189121;-0.0211212;-0.0184304;-0.142908
0.18962;-0.0205952;-0.0180454;-0.142654
0.190119;-0.0200811;-0.0176024;-0.142081
0.190618;-0.0196311;-0.0176231;-0.140044
0.191117;-0.019182;-0.0170021;-0.137561
0.191616;-0.0187833;-0.0168572;-0.139852
0.192115;-0.0182641;-0.016733;-0.141253
0.192614;-0.0178358;-0.0165467;-0.138898
0.193113;-0.0174165;-0.0165964;-0.141158
0.193612;-0.0168806;-0.0163273;-0.141762
0.194111;-0.0163891;-0.016526;-0.142876
0.19461;-0.0159154;-0.0163646;-0.142654
0.195109;-0.015413;-0.0162694;-0.141667
0.195608;-0.0148743;-0.0158305;-0.140998
0.196107;-0.0143947;-0.0147211;-0.139725
0.196606;-0.0140857;-0.0145555;-0.142335
0.197105;-0.0135341;-0.0142367;-0.14103
0.197604;-0.013011;-0.0138062;-0.14224
0.198103;-0.012555;-0.0129244;-0.139853
0.198602;-0.0120054;-0.0125435;-0.139248
0.199101;-0.0114745;-0.0123862;-0.13877
0.1996;-0.0109869;-0.0123366;-0.141667
0.200099;-0.010452;-0.0120882;-0.139184
0.200598;-0.010006;-0.011935;-0.141826
0.201097;-0.00948296;-0.0118232;-0.14224
0.201596;-0.00900525;-0.0112188;-0.139789
0.202095;-0.00853851;-0.011194;-0.142335
0.202594;-0.00804107;-0.0108255;-0.140266
0.203093;-0.00756842;-0.0104612;-0.142876
0.203592;-0.00709567;-0.0104033;-0.142813
0.204091;-0.00655287;-0.0101715;-0.140203
0.20459;-0.00603578;-0.00991064;-0.141444
0.205089;-0.0056114;-0.00990652;-0.142685
0.205588;-0.00502125;-0.00978233;-0.142813
0.206087;-0.00451101;-0.00942629;-0.142908
0.206586;-0.00408764;-0.00916552;-0.142781
0.207085;-0.00355475;-0.00868115;-0.140203
0.207584;-0.00302282;-0.00841206;-0.141571
0.208083;-0.00249385;-0.00838307;-0.139693
0.208582;-0.00206455;-0.00821334;-0.136351
0.209081;-0.00152177;-0.00806844;-0.132818
0.20958;-0.00109149;-0.00749301;-0.131895
0.210079;-0.000661207;-0.00713699;-0.133614
0.210578;-0.000200336;-0.00685962;-0.134983
0.211077;0.000324682;-0.00642079;-0.135205
0.211576;0.000747065;-0.00623865;-0.132627
0.212075;0.00119807;-0.00623037;-0.135269
0.212574;0.00173493;-0.00619726;-0.137752
0.213073;0.00220864;-0.00606892;-0.135906
0.213572;0.00272084;-0.00577502;-0.131609
0.214071;0.00318368;-0.00568395;-0.131163
0.21457;0.00374717;-0.00523272;-0.13355
0.215069;0.00424159;-0.00538175;-0.138357
0.215568;0.00477452;-0.00431781;-0.135556
0.216067;0.00524231;-0.00440474;-0.13912
0.216566;0.00576833;-0.00445443;-0.138516
0.217065;0.00612259;-0.00425157;-0.136447
0.217564;0.00661803;-0.00413151;-0.129858
0.218063;0.00709669;-0.00427641;-0.13285
0.218562;0.00757232;-0.00414393;-0.136097
0.219061;0.00809736;-0.00415635;-0.139502
0.21956;0.00865688;-0.00370512;-0.135428
0.220059;0.00910595;-0.00383345;-0.137083
0.220558;0.00958555;-0.00344845;-0.133964
0.221057;0.0101086;-0.0027033;-0.140107
0.221556;0.0106573;-0.00227689;-0.139662
0.222055;0.0111005;-0.00216511;-0.141126
0.222554;0.0116206;-0.00197468;-0.138611
0.223053;0.0121257;-0.00171801;-0.136351
0.223552;0.0126034;-0.00202436;-0.140871
0.224051;0.0129558;-0.00144893;-0.139311
0.22455;0.0134354;-0.00110532;-0.141062
0.225049;0.0139654;-9.93552e-05;-0.141285
0.225548;0.0144569;8.2796e-06;-0.141953
0.226047;0.0149532;4.55378e-05;-0.141253
0.226546;0.0155078;0.00021527;-0.140903
0.227045;0.0159924;0.000587852;-0.140266
0.227544;0.0164474;0.00153586;-0.141062
0.228043;0.0169428;0.00173457;-0.141953
0.228542;0.0174273;0.00205748;-0.136638
0.229041;0.0177697;0.00199952;-0.133805
0.22954;0.0182346;0.00218995;-0.133296
0.230039;0.0187428;0.00210301;-0.132468
0.230538;0.0191889;0.00221479;-0.135842
0.231037;0.0195313;0.00248802;-0.137656
0.231536;0.0200525;0.00324561;-0.141826
0.232035;0.0206751;0.00368028;-0.135587
0.232534;0.0211814;0.00420603;-0.138611
0.233033;0.0216166;0.00426399;-0.14068
0.233532;0.0221613;0.00439233;-0.140075
0.234031;0.0226056;0.00431367;-0.141253
0.23453;0.023011;0.00544382;-0.139184
0.235029;0.023549;0.00571292;-0.139311
0.235528;0.0240788;0.00615172;-0.1339
0.236027;0.0244083;0.00595715;-0.13998
0.236526;0.0249751;0.00620139;-0.137465
0.237025;0.0254822;0.00633387;-0.140871
0.237524;0.025957;0.00684719;-0.137911
0.238023;0.026395;0.00688859;-0.131259
0.238522;0.0268838;0.00636284;-0.133264
0.239021;0.0275133;0.00738537;-0.131641
0.23952;0.0279306;0.00778693;-0.12884
0.240019;0.0283403;0.00775381;-0.133614
0.240518;0.0289352;0.00810984;-0.133105
0.241017;0.0294615;0.00824232;-0.135492
0.241516;0.029861;0.00813054;-0.134155
0.242015;0.0303237;0.00814297;-0.132213
0.242514;0.0309132;0.00826303;-0.133709
0.243013;0.0313432;0.00849072;-0.135969
0.243512;0.03183;0.0089171;-0.132532
0.244011;0.0323825;0.00848244;-0.138484
0.24451;0.0328007;0.00860249;-0.138006
0.245009;0.0332056;0.00901645;-0.137911
0.245508;0.0337848;0.00945945;-0.139534
0.246007;0.0343899;0.010039;-0.138134
0.246506;0.0348141;0.0100431;-0.141126
