t;vds;corrente;vg
0;0.0584904;0.0193889;0.39223
2e-05;0.0415251;0.0192397;0.391414
4e-05;0.0303107;0.0188281;0.391398
6e-05;0.00429396;0.019538;0.391382
8e-05;-0.000187812;0.0186968;0.391382
0.0001;-0.000278752;0.0176946;0.391382
0.00012;0.0010814;0.0194486;0.391414
0.00014;0.00302575;0.0191502;0.39143
0.00016;0.00509365;0.0189593;0.391382
0.00018;0.00688478;0.0198423;0.391478
0.0002;0.00902584;0.0189414;0.391574
0.00022;0.0109988;0.0208147;0.391382
0.00024;0.013042;0.0204329;0.391606
0.00026;0.0149913;0.017104;0.391398
0.00028;0.0169841;0.0198482;0.391478
0.0003;0.0189827;0.0188162;0.391862
0.00032;0.0210714;0.0188937;0.391398
0.00034;0.0228972;0.0173426;0.391382
0.00036;0.0249285;0.0200809;0.391382
0.00038;0.0269351;0.0187684;0.391846
0.0004;0.0288142;0.0181957;0.391382
0.00042;0.030894;0.021113;0.391446
0.00044;0.0328146;0.0214829;0.391414
0.00046;0.0347896;0.0208385;0.39143
0.00048;0.0368457;0.0193531;0.391398
0.0005;0.0388868;0.0204329;0.391526
0.00052;0.0409211;0.0208565;0.39143
0.00054;0.0427509;0.0188042;0.391446
0.00056;0.0448197;0.0188818;0.391382
0.00058;0.0468886;0.0212204;0.391494
0.0006;0.0487755;0.0207968;0.391414
0.00062;0.0482497;0.0199019;0.391478
0.00064;0.0462004;0.0189474;0.391382
0.00066;0.0442325;0.0188341;0.391414
0.00068;0.0423484;0.0182494;0.391382
0.0007;0.0402815;0.0186074;0.391766
0.00072;0.0383203;0.0189713;0.391382
0.00074;0.0363325;0.0194366;0.39151
0.00076;0.0342132;0.0172054;0.39159
0.00078;0.0323026;0.0174918;0.391382
0.0008;0.0302435;0.0185477;0.391382
0.00082;0.0282646;0.0189772;0.391382
0.00084;0.026347;0.0202658;0.391446
0.00086;0.0243819;0.0217275;0.391398
0.00088;0.0225047;0.0186133;0.391382
0.0009;0.0204734;0.0188758;0.391478
0.00092;0.01836;0.020421;0.392006
0.00094;0.0163396;0.0191502;0.391638
0.00096;0.0144565;0.0210295;0.391446
0.00098;0.0124173;0.0180585;0.391494
0.001;0.0104937;0.0204985;0.391494
0.00102;0.00831411;0.0181778;0.391382
0.00104;0.00634408;0.0193591;0.391462
0.00106;0.00458656;0.0198124;0.391462
0.00108;0.00248406;0.0194903;0.391382
0.0011;0.000543665;0.0197647;0.39143
0.00112;-0.00144813;0.0187625;0.39159
0.00114;-0.00344783;0.017975;0.391382
0.00116;-0.00544654;0.0192517;0.391446
0.00118;-0.00747985;0.0192695;0.391398
0.0012;-0.00940738;0.0196633;0.39143
0.00122;-0.0114239;0.0201346;0.391382
0.00124;-0.0134087;0.0187386;0.391702
0.00126;-0.0155369;0.0192517;0.391382
0.00128;-0.0174733;0.0193829;0.391414
0.0013;-0.0194147;0.0197826;0.39143
0.00132;-0.0213877;0.0195082;0.391382
0.00134;-0.0234882;0.0192337;0.391478
0.00136;-0.0254691;0.0175096;0.391462
0.00138;-0.0272968;0.0208386;0.391494
0.0014;-0.0292995;0.0195798;0.391542
0.00142;-0.0313585;0.0196275;0.391382
0.00144;-0.0333395;0.0202599;0.391446
0.00146;-0.035432;0.0195321;0.391414
0.00148;-0.0373656;0.0198363;0.391382
0.0015;-0.039217;0.0186909;0.391686
0.00152;-0.0413542;0.0179511;0.391542
0.00154;-0.0432826;0.0172471;0.391574
0.00156;-0.0454674;0.0190727;0.391382
0.00158;-0.047281;0.0184761;0.391478
0.0016;-0.049172;0.0189474;0.391382
0.00162;-0.0490098;0.0194067;0.391558
0.00164;-0.0469906;0.018136;0.391382
0.00166;-0.0450312;0.0188699;0.391382
0.00168;-0.0430663;0.0181897;0.39143
0.0017;-0.0410881;0.0185298;0.391398
0.00172;-0.0392063;0.0188818;0.391638
0.00174;-0.037068;0.0189713;0.391494
0.00176;-0.0350862;0.0181838;0.39183
0.00178;-0.0331664;0.0194843;0.391382
0.0018;-0.0310807;0.0192576;0.391414
0.00182;-0.0292837;0.0188102;0.391398
0.00184;-0.0272791;0.0178318;0.391398
0.00186;-0.0252052;0.0196096;0.391622
0.00188;-0.0231501;0.0191502;0.391382
0.0019;-0.0212641;0.0186789;0.391446
0.00192;-0.0191775;0.0184403;0.391382
0.00194;-0.017243;0.0195261;0.391382
0.00196;-0.0152305;0.0185835;0.391654
0.00198;-0.0132496;0.0181062;0.391782
0.002;-0.0112766;0.019711;0.391622
0.00202;-0.00909303;0.0177722;0.391478
0.00204;-0.00726238;0.0184821;0.391654
0.00206;-0.00526762;0.0190846;0.391478
0.00208;-0.00320367;0.0200392;0.391926
0.0021;-0.00117432;0.0190846;0.391414
0.00212;0.000719615;0.0189295;0.391414
0.00214;0.00265012;0.019377;0.391398
0.00216;0.00469826;0.0182792;0.391574
0.00218;0.00668214;0.0193232;0.391382
0.0022;0.00859288;0.0183985;0.391414
0.00222;0.0105916;0.0193949;0.391382
0.00224;0.0125062;0.0185954;0.391382
0.00226;0.0146799;0.0199138;0.391478
0.00228;0.0167112;0.0190429;0.39143
0.0023;0.0185726;0.0200272;0.391398
0.00232;0.0206948;0.0198662;0.391382
0.00234;0.0226204;0.0201107;0.391382
0.00236;0.0245935;0.0208266;0.39143
0.00238;0.0264488;0.0191383;0.391478
0.0024;0.0284119;0.0212621;0.391542
0.00242;0.0305114;0.019198;0.391382
0.00244;0.0324341;0.0175037;0.391494
0.00246;0.0343556;0.0180346;0.391462
0.00248;0.0364432;0.0193232;0.391382
0.0025;0.038526;0.0179451;0.39151
0.00252;0.0404949;0.0194724;0.391382
0.00254;0.0424217;0.0184165;0.391382
0.00256;0.0444607;0.0196096;0.391382
0.00258;0.0464933;0.0196633;0.391382
0.0026;0.0482861;0.0194545;0.39159
0.00262;0.048568;0.0195142;0.391382
0.00264;0.0467305;0.0189832;0.391398
0.00266;0.0447129;0.0188937;0.391382
0.00268;0.0426096;0.0199437;0.391382
0.0027;0.0406729;0.0186074;0.391382
0.00272;0.0386742;0.0190369;0.391494
0.00274;0.0367447;0.0213934;0.391382
0.00276;0.0346372;0.0194843;0.391478
0.00278;0.0326425;0.0188639;0.391382
0.0028;0.0306636;0.0200809;0.391382
0.00282;0.028657;0.0181659;0.391382
0.00284;0.0267729;0.0206715;0.391398
0.00286;0.0246863;0.0195142;0.391382
0.00288;0.0227943;0.0206835;0.391398
0.0029;0.0208964;0.0176647;0.391382
0.00292;0.0188068;0.0192158;0.39159
0.00294;0.0167607;0.017802;0.39143
0.00296;0.0148302;0.0184821;0.391542
0.00298;0.0127158;0.0188162;0.391382
0.003;0.0107418;0.0184582;0.391382
0.00302;0.00875893;0.0202301;0.391382
0.00304;0.00677111;0.0189295;0.391382
0.00306;0.00494637;0.0195082;0.391382
0.00308;0.00290317;0.0189057;0.391382
0.0031;0.00106262;0.0186014;0.391382
0.00312;-0.00099046;0.0194127;0.391398
0.00314;-0.00299016;0.0196633;0.391398
0.00316;-0.00503731;0.0205522;0.391382
0.00318;-0.00714377;0.0196514;0.391382
0.0032;-0.00898926;0.0210354;0.391382
0.00322;-0.0109968;0.0190727;0.391382
0.00324;-0.0131903;0.018321;0.391382
0.00326;-0.0150575;0.0189056;0.391382
0.00328;-0.0170453;0.0177602;0.391382
0.0033;-0.0190589;0.0208505;0.391382
0.00332;-0.0210556;0.0199019;0.39143
0.00334;-0.0231265;0.0207252;0.391382
0.00336;-0.0250787;0.0185477;0.39151
0.00338;-0.0269638;0.0179809;0.391382
0.0034;-0.0290366;0.0172531;0.391382
0.00342;-0.0309652;0.0180048;0.39143
0.00344;-0.0330034;0.0188877;0.391382
0.00346;-0.0350565;0.0181838;0.391382
0.00348;-0.0370681;0.0186909;0.391382
0.0035;-0.0389729;0.0178676;0.391382
0.00352;-0.0409202;0.0177662;0.391382
0.00354;-0.0429149;0.0186909;0.391382
0.00356;-0.0450362;0.0175753;0.39143
0.00358;-0.0468096;0.0183508;0.391398
0.0036;-0.0488774;0.0182136;0.391494
0.00362;-0.0493102;0.0177244;0.391382
0.00364;-0.0474077;0.0194187;0.391414
0.00366;-0.0455737;0.0167222;0.391606
0.00368;-0.0434212;0.0192159;0.391382
0.0037;-0.0414618;0.0195022;0.391382
0.00372;-0.0395709;0.0186909;0.391382
0.00374;-0.0375701;0.0193889;0.39159
0.00376;-0.0357159;0.0182733;0.391558
0.00378;-0.0336242;0.0191204;0.391462
0.0038;-0.0315829;0.0181599;0.391382
0.00382;-0.0296258;0.0190429;0.391382
0.00384;-0.0275994;0.0189056;0.391382
0.00386;-0.0255957;0.0182076;0.391382
0.00388;-0.0236158;0.017981;0.391382
0.0039;-0.0215607;0.0205223;0.391382
0.00392;-0.0196282;0.0180048;0.391382
0.00394;-0.0176463;0.0191681;0.391382
0.00396;-0.0156219;0.0199198;0.391414
0.00398;-0.0137399;0.019717;0.391382
0.004;-0.0116878;0.0193411;0.391478
0.00402;-0.00970293;0.0193948;0.39143
0.00404;-0.00763306;0.0194545;0.391382
0.00406;-0.00568575;0.0191502;0.391382
0.00408;-0.00354173;0.0181718;0.391382
0.0041;-0.0015964;0.0202957;0.391382
0.00412;0.000310383;0.0194545;0.391382
0.00414;0.00218751;0.0188221;0.391382
0.00416;0.00432165;0.0179988;0.391382
0.00418;0.00614342;0.0186133;0.391494
0.0042;0.00824691;0.0189772;0.391478
0.00422;0.0101596;0.0189832;0.391382
0.00424;0.0121099;0.0190608;0.391478
0.00426;0.0142499;0.0211965;0.391462
0.00428;0.0162921;0.0190011;0.391622
0.0043;0.0181534;0.0208803;0.391398
0.00432;0.0202035;0.018309;0.391382
0.00434;0.0221449;0.0194306;0.391382
0.00436;0.0241238;0.0179631;0.391382
0.00438;0.0261117;0.019192;0.391382
0.0044;0.0279324;0.0168832;0.391638
0.00442;0.030118;0.0182077;0.39151
0.00444;0.031917;0.0183508;0.391382
0.00446;0.0339721;0.0206118;0.391382
0.00448;0.0361021;0.0189116;0.391382
0.0045;0.0380575;0.0200391;0.391382
0.00452;0.0400451;0.0178676;0.391382
0.00454;0.0418948;0.018846;0.391462
0.00456;0.0439981;0.0199079;0.391382
0.00458;0.0459289;0.0192636;0.391382
0.0046;0.0479668;0.0192278;0.391382
0.00462;0.0489041;0.0190488;0.391382
0.00464;0.0469729;0.0160778;0.391382
0.00466;0.0450312;0.0195201;0.391382
0.00468;0.0430792;0.0166386;0.391382
0.0047;0.0410239;0.017098;0.391446
0.00472;0.0391825;0.0188997;0.391382
0.00474;0.0370363;0.0188162;0.391398
0.00476;0.0349922;0.0201943;0.391398
0.00478;0.0330082;0.0199676;0.391382
0.0048;0.0311025;0.0183269;0.391382
0.00482;0.0289634;0.0191681;0.391478
0.00484;0.0270526;0.0178318;0.391382
0.00486;0.0251281;0.017444;0.391382
0.00488;0.0232094;0.0187923;0.391382
0.0049;0.0212671;0.0198602;0.391382
0.00492;0.0192051;0.0192756;0.391382
0.00494;0.0172302;0.0183091;0.391382
0.00496;0.0151564;0.0193232;0.391382
0.00498;0.0131863;0.0192875;0.391382
0.005;0.0111797;0.0198781;0.391382
0.00502;0.00917309;0.0180883;0.391382
0.00504;0.00715069;0.0188937;0.391382
0.00506;0.00531013;0.0185954;0.391382
0.00508;0.00312163;0.0165134;0.391382
0.0051;0.00129887;0.0177602;0.391446
0.00512;-0.000556515;0.0177065;0.391638
0.00514;-0.00262838;0.0183926;0.391382
0.00516;-0.00461819;0.0186312;0.391382
0.00518;-0.00666534;0.0180168;0.39143
0.0052;-0.00855037;0.0186014;0.391398
0.00522;-0.0107547;0.0189474;0.391382
0.00524;-0.0127949;0.0195142;0.391382
0.00526;-0.0146838;0.0181778;0.391382
0.00528;-0.0166559;0.0178378;0.391382
0.0053;-0.0186714;0.0180883;0.391382
0.00532;-0.020508;0.0195559;0.391382
0.00534;-0.0225947;0.0192636;0.391462
0.00536;-0.0245667;0.0173963;0.391382
0.00538;-0.0266149;0.0194903;0.391382
0.0054;-0.028754;0.0170861;0.391382
0.00542;-0.0306647;0.0178795;0.391382
0.00544;-0.0324568;0.0201406;0.391382
0.00546;-0.0346414;0.018852;0.391382
0.00548;-0.0365115;0.0184463;0.391382
0.0055;-0.0385833;0.0180943;0.391414
0.00552;-0.0405058;0.0178974;0.391382
0.00554;-0.0424898;0.0188579;0.391542
0.00556;-0.0445714;0.0180048;0.391382
0.00558;-0.0464626;0.0174142;0.391382
0.0056;-0.0484531;0.019884;0.391382
0.00562;-0.0495247;0.0176767;0.391462
0.00564;-0.047885;0.0173068;0.391382
0.00566;-0.0458722;0.0184463;0.391382
0.00568;-0.0439172;0.0182255;0.391382
0.0057;-0.0417859;0.0204627;0.391414
0.00572;-0.0400226;0.0181539;0.391382
0.00574;-0.0378647;0.0204806;0.391382
0.00576;-0.0359847;0.0197647;0.391382
0.00578;-0.0339899;0.0179511;0.391398
0.0058;-0.0319902;0.0178378;0.391382
0.00582;-0.0301131;0.0193471;0.391398
0.00584;-0.0280521;0.0178318;0.391382
0.00586;-0.0259971;0.0186909;0.391382
0.00588;-0.0241426;0.0181301;0.391382
0.0059;-0.0220639;0.0189116;0.391478
0.00592;-0.0200148;0.0182852;0.391382
0.00594;-0.0182078;0.017975;0.391382
0.00596;-0.0161063;0.0187923;0.391382
0.00598;-0.0140681;0.0186073;0.391382
0.006;-0.0121346;0.0190309;0.391398
0.00602;-0.00999451;0.0185537;0.391398
0.00604;-0.00800869;0.0190965;0.391446
0.00606;-0.00601294;0.0191324;0.391382
0.00608;-0.00414273;0.0186252;0.391382
0.0061;-0.00204418;0.0198423;0.391398
0.00612;-7.61129e-05;0.0194903;0.391542
0.00614;0.00183957;0.0182733;0.39151
0.00616;0.00379676;0.01779;0.391398
0.00618;0.00577966;0.0192636;0.391382
0.0062;0.00778233;0.0202718;0.391382
0.00622;0.00979684;0.0184582;0.391382
0.00624;0.0118262;0.0185596;0.391462
0.00626;0.0139158;0.0188042;0.391382
0.00628;0.0157415;0.0184224;0.391382
0.0063;0.0176888;0.0191144;0.391382
0.00632;0.019816;0.0206119;0.391414
0.00634;0.0217514;0.0192278;0.391382
0.00636;0.0236771;0.0180585;0.391382
0.00638;0.0256401;0.0194545;0.391382
0.0064;0.027624;0.0178855;0.391382
0.00642;0.0295881;0.0179153;0.391382
0.00644;0.0315493;0.0185179;0.391382
0.00646;0.033468;0.0192158;0.391382
0.00648;0.0356544;0.019711;0.391382
0.0065;0.0378025;0.019204;0.391382
0.00652;0.0396241;0.0179809;0.391382
0.00654;0.0415884;0.0187505;0.391382
0.00656;0.0435939;0.0170025;0.391446
0.00658;0.0455217;0.01779;0.391382
0.0066;0.0476585;0.0192636;0.391382
0.00662;0.0488664;0.0183986;0.391494
0.00664;0.0473237;0.0195678;0.391478
0.00666;0.04538;0.0187267;0.391382
0.00668;0.04343;0.0188997;0.391382
0.0067;0.0415102;0.0193471;0.391382
0.00672;0.0395591;0.0202241;0.391414
0.00674;0.0374584;0.0199675;0.391398
0.00676;0.0354559;0.0198483;0.391382
0.00678;0.0335293;0.0203016;0.391382
0.0068;0.0314594;0.0199437;0.391382
0.00682;0.0294152;0.019902;0.391382
0.00684;0.0274926;0.0196514;0.391766
0.00686;0.0253969;0.0206178;0.391414
0.00688;0.0235317;0.0188161;0.391382
0.0069;0.0216566;0.016746;0.391382
0.00692;0.0195887;0.0180824;0.391382
0.00694;0.0176057;0.0190906;0.391446
0.00696;0.015613;0.0177781;0.391382
0.00698;0.0135165;0.0194187;0.391382
0.007;0.0115949;0.0192219;0.391382
0.00702;0.0096535;0.0193471;0.391382
0.00704;0.00751642;0.0182076;0.391478
0.00706;0.00566598;0.0190548;0.391398
0.00708;0.00373251;0.0182255;0.391382
0.0071;0.00167745;0.0187983;0.391382
0.00712;-0.000195719;0.0204627;0.391414
0.00714;-0.00226363;0.0194008;0.391478
0.00716;-0.00427914;0.016931;0.391382
0.00718;-0.00617999;0.0190429;0.391446
0.0072;-0.00831018;0.0210832;0.391542
0.00722;-0.0102525;0.0183806;0.391414
0.00724;-0.0122581;0.0184224;0.391382
0.00726;-0.0142351;0.0189891;0.391382
0.00728;-0.0162091;0.0183687;0.391382
0.0073;-0.0181959;0.0216499;0.391382
0.00732;-0.020249;0.0177781;0.391382
0.00734;-0.0222468;0.0203494;0.391462
0.00736;-0.0241941;0.0188221;0.39143
0.00738;-0.0261671;0.0188579;0.391382
0.0074;-0.0282587;0.0194426;0.391382
0.00742;-0.0301555;0.0185119;0.391382
0.00744;-0.0321621;0.0181301;0.391398
0.00746;-0.0341184;0.0184403;0.391382
0.00748;-0.0361871;0.018488;0.391382
0.0075;-0.0381692;0.0194665;0.391414
0.00752;-0.0402043;0.0182375;0.391382
0.00754;-0.0420678;0.0177006;0.391398
0.00756;-0.0441384;0.0180585;0.391542
0.00758;-0.0461384;0.0175037;0.391798
0.0076;-0.04795;0.0189653;0.391382
0.00762;-0.0495751;0.0190369;0.391382
0.00764;-0.0482467;0.0188161;0.391382
0.00766;-0.046241;0.0188221;0.391382
0.00768;-0.0444065;0.0184045;0.391478
0.0077;-0.0422633;0.0190727;0.391382
0.00772;-0.0402578;0.0187625;0.391398
0.00774;-0.0383648;0.0194008;0.391382
0.00776;-0.0363454;0.0196454;0.391398
0.00778;-0.0343466;0.0182196;0.391398
0.0078;-0.032352;0.0180346;0.391382
0.00782;-0.0304313;0.0181301;0.391494
0.00784;-0.0285315;0.018494;0.391382
0.00786;-0.0262649;0.018846;0.391382
0.00788;-0.0244817;0.0185417;0.391398
0.0079;-0.0223288;0.0191025;0.391382
0.00792;-0.0203924;0.0190607;0.391414
0.00794;-0.0182701;0.0202897;0.391414
0.00796;-0.016474;0.0181778;0.391382
0.00798;-0.0145099;0.0192039;0.391382
0.008;-0.0125131;0.0178795;0.391382
0.00802;-0.0104235;0.0181838;0.391382
0.00804;-0.00847623;0.0205641;0.391382
0.00806;-0.00650422;0.0194008;0.391382
0.00808;-0.00447387;0.0196275;0.391382
0.0081;-0.00240498;0.0189176;0.391382
0.00812;-0.000416151;0.0198423;0.391382
0.00814;0.00150447;0.0204568;0.391382
0.00816;0.00344486;0.0184582;0.391382
0.00818;0.00547718;0.0187863;0.391382
0.0082;0.00733652;0.0186611;0.391382
0.00822;0.00940341;0.0184642;0.391382
0.00824;0.0113853;0.0191502;0.391494
0.00826;0.0134147;0.0189772;0.391494
0.00828;0.0154104;0.0184761;0.391382
0.0083;0.0174279;0.0183628;0.39143
0.00832;0.0193989;0.0196454;0.39143
0.00834;0.0214707;0.0192815;0.391382
0.00836;0.0234003;0.0183568;0.391382
0.00838;0.0253861;0.0192576;0.39143
0.0084;0.0273769;0.0183926;0.391382
0.00842;0.0293489;0.0226283;0.391478
0.00844;0.0312646;0.0183568;0.391398
0.00846;0.0331754;0.0175753;0.39167
0.00848;0.0353204;0.0203852;0.391382
0.0085;0.037416;0.0208386;0.391542
0.00852;0.0392723;0.019365;0.391382
0.00854;0.0412712;0.0194426;0.391638
0.00856;0.0433172;0.0199676;0.391382
0.00858;0.0452459;0.021811;0.391414
0.0086;0.0472019;0.0199496;0.391382
0.00862;0.0490196;0.0199556;0.391558
0.00864;0.0478297;0.0185656;0.391382
0.00866;0.045805;0.0196096;0.391382
0.00868;0.0438737;0.0197528;0.391622
0.0087;0.0418165;0.0190429;0.391382
0.00872;0.0398348;0.0192636;0.391382
0.00874;0.0379694;0.0189713;0.391526
0.00876;0.0359037;0.0191323;0.391382
0.00878;0.0337299;0.0171696;0.391382
0.0088;0.0318666;0.0190846;0.39143
0.00882;0.0299026;0.0193053;0.391446
0.00884;0.0278712;0.0192099;0.391382
0.00886;0.0258685;0.0195201;0.391382
0.00888;0.0239203;0.0191979;0.391382
0.0089;0.0219848;0.0188161;0.391382
0.00892;0.0199564;0.0191443;0.391382
0.00894;0.0179834;0.0190548;0.391446
0.00896;0.0160381;0.017981;0.391382
0.00898;0.014074;0.0192338;0.391382
0.009;0.0119576;0.0179153;0.391382
0.00902;0.0099619;0.0186551;0.391382
0.00904;0.00794542;0.0191562;0.391382
0.00906;0.00597241;0.0180346;0.39159
0.00908;0.00399446;0.0185358;0.391382
0.0091;0.00208372;0.0178557;0.391382
0.00912;8.40208e-05;0.0183329;0.391414
0.00914;-0.00201848;0.0161256;0.391382
0.00916;-0.00386694;0.018154;0.391382
0.00918;-0.00592892;0.0180883;0.391382
0.0092;-0.00795926;0.0183866;0.391382
0.00922;-0.00988085;0.0191204;0.391542
0.00924;-0.0118845;0.0199795;0.391398
0.00926;-0.0138634;0.0175753;0.391382
0.00928;-0.0159372;0.0177543;0.391382
0.0093;-0.0178351;0.0200213;0.391382
0.00932;-0.0198101;0.0194366;0.391382
0.00934;-0.0219195;0.0178139;0.391382
0.00936;-0.0239241;0.0185238;0.391398
0.00938;-0.0257953;0.0184761;0.391382
0.0094;-0.0277614;0.0204031;0.391382
0.00942;-0.0298916;0.0178318;0.391574
0.00944;-0.0316066;0.0206417;0.391686
0.00946;-0.0337773;0.0201048;0.391382
0.00948;-0.0357513;0.0195619;0.391382
0.0095;-0.0376799;0.0185417;0.391382
0.00952;-0.039889;0.0192218;0.391382
0.00954;-0.0416734;0.0173068;0.391382
0.00956;-0.0436403;0.0200451;0.391382
0.00958;-0.0457648;0.0178795;0.391382
0.0096;-0.0475745;0.0189892;0.391382
0.00962;-0.0495409;0.0170205;0.391478
0.00964;-0.0485709;0.0174619;0.39159
0.00966;-0.0465862;0.0179869;0.39143
0.00968;-0.0447515;0.0205343;0.391382
0.0097;-0.0427103;0.0179273;0.391382
0.00972;-0.0408035;0.0184165;0.391446
0.00974;-0.0387702;0.0194068;0.391382
0.00976;-0.0367783;0.0180406;0.391382
0.00978;-0.0348686;0.0186193;0.391382
0.0098;-0.0327236;0.0194008;0.391382
0.00982;-0.0307318;0.0177662;0.391398
0.00984;-0.0288655;0.0174858;0.391382
0.00986;-0.0267828;0.0191443;0.391382
0.00988;-0.0248562;0.0184403;0.391542
0.0099;-0.0227835;0.0194426;0.391382
0.00992;-0.0208648;0.0179034;0.391382
0.00994;-0.0187959;0.0181957;0.391382
0.00996;-0.0168644;0.0187983;0.391382
0.00998;-0.0148529;0.0175813;0.391382
0.01;-0.013044;0.0195022;0.391382
0.01002;-0.0108822;0.0193889;0.391382
0.01004;-0.00892301;0.0177184;0.391382
0.01006;-0.00692926;0.0187863;0.391382
0.01008;-0.00485246;0.0179273;0.391382
0.0101;-0.0028577;0.0196454;0.391382
0.01012;-0.000920277;0.0195977;0.391382
0.01014;0.00116938;0.0191562;0.391382
0.01016;0.00301487;0.0184761;0.391382
0.01018;0.0049948;0.0194068;0.391382
0.0102;0.00705184;0.0188161;0.391382
0.01022;0.00902681;0.0180227;0.391382
0.01024;0.0109731;0.0189057;0.391382
0.01026;0.0130114;0.0180585;0.391398
0.01028;0.0149913;0.0186074;0.391398
0.0103;0.016985;0.0189772;0.391382
0.01032;0.0189343;0.0191085;0.391382
0.01034;0.0208995;0.0175156;0.391382
0.01036;0.0229357;0.0192755;0.391382
0.01038;0.0248129;0.0176767;0.39143
0.0104;0.0270132;0.0197587;0.391414
0.01042;0.0287698;0.0185119;0.39143
0.01044;0.0308229;0.0191801;0.391382
0.01046;0.0328057;0.0187684;0.391446
0.01048;0.0347165;0.0197289;0.391398
0.0105;0.0367804;0.0180525;0.391382
0.01052;0.0388355;0.0180883;0.391382
0.01054;0.04076;0.0182732;0.391382
0.01056;0.0428112;0.0193591;0.391382
0.01058;0.0447851;0.0169071;0.391382
0.0106;0.0468244;0.0206834;0.391382
0.01062;0.04855;0.0178974;0.391446
0.01064;0.048307;0.0209698;0.391398
0.01066;0.0461371;0.0180943;0.391382
0.01068;0.0442117;0.019538;0.391382
0.0107;0.0422386;0.0177901;0.391462
