t;vds;corrente;vg
0;-0.000620767;0.0165125;-0.396697
2e-05;0.000277763;0.0190819;-0.396522
4e-05;0.00222705;0.018479;-0.397178
6e-05;0.00421884;0.017253;-0.396634
8e-05;0.00624721;0.0172853;-0.395945
0.0001;0.00806701;0.0183738;-0.397034
0.00012;0.0101497;0.0181229;-0.398235
0.00014;0.0121316;0.019272;-0.397194
0.00016;0.01425;0.0191263;-0.397418
0.00018;0.0161251;0.0173177;-0.396121
0.0002;0.0181099;0.0185801;-0.397995
0.00022;0.0200681;0.0212749;-0.398411
0.00024;0.0222052;0.0152501;-0.397947
0.00026;0.0240308;0.020324;-0.398635
0.00028;0.025998;0.0175928;-0.398699
0.0003;0.0280065;0.0191587;-0.397979
0.00032;0.0299449;0.0210523;-0.398091
0.00034;0.0318853;0.0170142;-0.397899
0.00036;0.0338861;0.0178437;-0.397179
0.00038;0.0359015;0.0171154;-0.398715
0.0004;0.038013;0.0165246;-0.398475
0.00042;0.0399018;0.0187136;-0.397995
0.00044;0.0419225;0.0206558;-0.398395
0.00046;0.0438479;0.0162414;-0.399052
0.00048;0.0458063;0.0168848;-0.398619
0.0005;0.0478265;0.0159541;-0.398587
0.00052;0.0482289;0.0192477;-0.398651
0.00054;0.0462191;0.0171275;-0.398171
0.00056;0.0443076;0.0182321;-0.398059
0.00058;0.0423275;0.0178599;-0.398091
0.0006;0.0403181;0.0145016;-0.398379
0.00062;0.0383242;0.0196847;-0.396858
0.00064;0.0363938;0.0177628;-0.398043
0.00066;0.0342666;0.0202836;-0.397371
0.00068;0.0323292;0.0188876;-0.396889
0.0007;0.0303187;0.0159218;-0.397867
0.00072;0.0283328;0.0178639;-0.397642
0.00074;0.0264913;0.0178032;-0.398155
0.00076;0.024453;0.0170628;-0.399019
0.00078;0.0226026;0.0171073;-0.398475
0.0008;0.0205673;0.0186206;-0.398331
0.00082;0.018537;0.0169414;-0.398779
0.00084;0.0165798;0.0212749;-0.398011
0.00086;0.0146463;0.0186489;-0.396586
0.00088;0.0125487;0.0188391;-0.397739
0.0009;0.0105886;0.0196038;-0.397818
0.00092;0.00854839;0.0195633;-0.397114
0.00094;0.00656946;0.0176131;-0.395881
0.00096;0.00467058;0.0181188;-0.39665
0.00098;0.00269065;0.0153432;-0.398283
0.001;0.000720603;0.0198263;-0.397963
0.00102;-0.00115356;0.0195067;-0.395897
0.00104;-0.00322542;0.0188876;-0.397915
0.00106;-0.00517866;0.0160958;-0.398379
0.00108;-0.00725744;0.0214205;-0.398331
0.0011;-0.00924526;0.0180703;-0.395561
0.00112;-0.011245;0.0175969;-0.398955
0.00114;-0.0133049;0.0184951;-0.397658
0.00116;-0.0152433;0.0195876;-0.397611
0.00118;-0.0172025;0.0190657;-0.397819
0.0012;-0.0191933;0.018309;-0.398011
0.00122;-0.0212058;0.0165166;-0.398635
0.00124;-0.0231196;0.0180258;-0.396313
0.00126;-0.0251133;0.0185316;-0.397386
0.00128;-0.0270844;0.0181512;-0.39761
0.0013;-0.0291523;0.0186691;-0.398507
0.00132;-0.0310828;0.0180581;-0.398059
0.00134;-0.0330588;0.0198749;-0.397786
0.00136;-0.035097;0.0195107;-0.397163
0.00138;-0.0370187;0.0193934;-0.399004
0.0014;-0.0390263;0.0199032;-0.399052
0.00142;-0.0409834;0.0170749;-0.398026
0.00144;-0.0430029;0.0192315;-0.398058
0.00146;-0.0450363;0.0175038;-0.397627
0.00148;-0.0469075;0.0180541;-0.398555
0.0015;-0.0488092;0.0188552;-0.396938
0.00152;-0.049577;0.0175888;-0.397675
0.00154;-0.0476093;0.019798;-0.398955
0.00156;-0.0458178;0.0169293;-0.398876
0.00158;-0.043771;0.018835;-0.399196
0.0016;-0.0416554;0.0167148;-0.398075
0.00162;-0.0398437;0.0199477;-0.398171
0.00164;-0.0378706;0.0159541;-0.398235
0.00166;-0.0358789;0.0177992;-0.399116
0.00168;-0.0339266;0.0206275;-0.39926
0.0017;-0.0318795;0.0176859;-0.398219
0.00172;-0.029949;0.0190737;-0.399148
0.00174;-0.0279651;0.0189321;-0.398411
0.00176;-0.0259496;0.0207286;-0.399228
0.00178;-0.0241022;0.0192963;-0.398443
0.0018;-0.0220303;0.0205587;-0.398331
0.00182;-0.0199782;0.0187784;-0.398923
0.00184;-0.0180516;0.01629;-0.399292
0.00186;-0.0160539;0.0163223;-0.398523
0.00188;-0.0140473;0.01945;-0.399244
0.0019;-0.012096;0.0173865;-0.398972
0.00192;-0.0101141;0.0162657;-0.399212
0.00194;-0.00812137;0.0192194;-0.399372
0.00196;-0.00611871;0.0144732;-0.398154
0.00198;-0.00409627;0.021724;-0.398699
0.002;-0.00213809;0.0180986;-0.39902
0.00202;-5.04125e-05;0.0182888;-0.397979
0.00204;0.00193545;0.0180946;-0.398795
0.00206;0.00377502;0.0234234;-0.396778
0.00208;0.00566796;0.0145056;-0.398523
0.0021;0.00758661;0.0198466;-0.398411
0.00212;0.00967029;0.0165651;-0.398987
0.00214;0.011668;0.0220801;-0.399036
0.00216;0.0137646;0.0175645;-0.397578
0.00218;0.0157316;0.017694;-0.398891
0.0022;0.0177313;0.0188027;-0.399228
0.00222;0.0196085;0.0134859;-0.398843
0.00224;0.021621;0.0177911;-0.398811
0.00226;0.0235525;0.018916;-0.398811
0.00228;0.0256223;0.0158004;-0.3991
0.0023;0.0275539;0.0158166;-0.399036
0.00232;0.029515;0.0201055;-0.398779
0.00234;0.0314939;0.0165692;-0.398411
0.00236;0.0334007;0.0195633;-0.398603
0.00238;0.0355585;0.0194217;-0.398619
0.0024;0.0375692;0.0170223;-0.398972
0.00242;0.0394986;0.0207246;-0.399068
0.00244;0.041539;0.0203766;-0.398907
0.00246;0.0434951;0.0218251;-0.397082
0.00248;0.0454021;0.0160593;-0.398699
0.0025;0.0473739;0.0219911;-0.399004
0.00252;0.0484533;0.0175241;-0.399372
0.00254;0.0466615;0.0166825;-0.398956
0.00256;0.0446536;0.018657;-0.398811
0.00258;0.0427964;0.0177951;-0.398955
0.0026;0.0406996;0.0195633;-0.399084
0.00262;0.0387484;0.0162293;-0.399003
0.00264;0.036716;0.0176778;-0.397931
0.00266;0.034656;0.0184142;-0.398507
0.00268;0.0327087;0.0183616;-0.397771
0.0027;0.0307387;0.0180055;-0.398651
0.00272;0.0287301;0.0177142;-0.398539
0.00274;0.0267403;0.0196766;-0.397995
0.00276;0.0248217;0.0157761;-0.397402
0.00278;0.0228309;0.0184952;-0.398523
0.0028;0.0209004;0.0145582;-0.399084
0.00282;0.0188562;0.0207974;-0.398411
0.00284;0.0168536;0.0196685;-0.398587
0.00286;0.0149399;0.0194258;-0.398699
0.00288;0.0129214;0.0196402;-0.398795
0.0029;0.010811;0.017872;-0.398876
0.00292;0.0088993;0.0196321;-0.397706
0.00294;0.00693816;0.0214124;-0.397883
0.00296;0.00506696;0.0177385;-0.397018
0.00298;0.00301388;0.0197495;-0.397803
0.003;0.00105175;0.0166177;-0.398395
0.00302;-0.0008926;0.0182605;-0.398683
0.00304;-0.00289724;0.0199194;-0.398731
0.00306;-0.00489299;0.0173824;-0.398443
0.00308;-0.00696782;0.0155738;-0.398187
0.0031;-0.00889238;0.0170385;-0.397066
0.00312;-0.0108525;0.0147565;-0.398491
0.00314;-0.0129402;0.0191506;-0.398587
0.00316;-0.0148766;0.0194379;-0.398363
0.00318;-0.0168615;0.0169414;-0.3991
0.0032;-0.0188246;0.0157802;-0.398475
0.00322;-0.0207798;0.0184749;-0.398972
0.00324;-0.0228478;0.0169374;-0.398203
0.00326;-0.0247388;0.0183454;-0.399116
0.00328;-0.0267167;0.0190495;-0.398924
0.0033;-0.0288558;0.0173865;-0.398683
0.00332;-0.0307517;0.020057;-0.398507
0.00334;-0.0327287;0.0166217;-0.398443
0.00336;-0.0347165;0.0179894;-0.398555
0.00338;-0.0366469;0.0204535;-0.397242
0.0034;-0.0386269;0.016642;-0.398091
0.00342;-0.0405987;0.0203523;-0.395529
0.00344;-0.042479;0.0139634;-0.395129
0.00346;-0.0446723;0.0168929;-0.396699
0.00348;-0.0465387;0.0181027;-0.39894
0.0035;-0.0484413;0.0179934;-0.398042
0.00352;-0.0497719;0.0186084;-0.397627
0.00354;-0.04805;0.0178194;-0.397466
0.00356;-0.0461511;0.0195553;-0.398635
0.00358;-0.0441376;0.0201298;-0.399132
0.0036;-0.0422256;0.0202471;-0.39918
0.00362;-0.0401758;0.0186125;-0.398907
0.00364;-0.038171;0.0204818;-0.398267
0.00366;-0.0362051;0.0196726;-0.398347
0.00368;-0.0342943;0.0203968;-0.397595
0.0037;-0.0322838;0.0195472;-0.397883
0.00372;-0.0303355;0.016468;-0.398187
0.00374;-0.0284376;0.0183211;-0.397979
0.00376;-0.0263193;0.0186044;-0.398283
0.00378;-0.0243206;0.0172894;-0.396697
0.0038;-0.0224346;0.018827;-0.398379
0.00382;-0.0203241;0.0194419;-0.398075
0.00384;-0.0184213;0.0184992;-0.39894
0.00386;-0.0165215;0.0192518;-0.399132
0.00388;-0.014419;0.0189564;-0.398475
0.0039;-0.0125408;0.0195998;-0.397002
0.00392;-0.0104265;0.0180501;-0.397146
0.00394;-0.00853256;0.0165449;-0.397403
0.00396;-0.00645973;0.0181229;-0.397723
0.00398;-0.00452231;0.0201096;-0.398331
0.004;-0.0025572;0.0178113;-0.398299
0.00402;-0.000430978;0.0201379;-0.398027
0.00404;0.001459;0.0186772;-0.397723
0.00406;0.00341521;0.0188148;-0.398075
0.00408;0.00543468;0.0198709;-0.39689
0.0041;0.00723668;0.0203402;-0.396586
0.00412;0.00929369;0.016472;-0.397643
0.00414;0.0112479;0.0191628;-0.398331
0.00416;0.0133366;0.0190131;-0.398875
0.00418;0.015359;0.0202188;-0.398203
0.0042;0.0172905;0.0183535;-0.396762
0.00422;0.0192783;0.0177911;-0.397947
0.00424;0.0213156;0.0186246;-0.397851
0.00426;0.0231956;0.0178478;-0.39785
0.00428;0.0252032;0.0215703;-0.395929
0.0043;0.027202;0.0186044;-0.396986
0.00432;0.0290396;0.0197738;-0.398315
0.00434;0.0311737;0.0174472;-0.398651
0.00436;0.0330855;0.019709;-0.398523
0.00438;0.0350377;0.0203038;-0.398603
0.0044;0.0370899;0.0187258;-0.398715
0.00442;0.0390687;0.0175079;-0.398971
0.00444;0.0410418;0.0172853;-0.398779
0.00446;0.0429545;0.0189726;-0.398075
0.00448;0.045063;0.0170749;-0.397691
0.0045;0.0470745;0.0181148;-0.398555
0.00452;0.0484266;0.0200044;-0.398859
0.00454;0.0470411;0.0175119;-0.397643
0.00456;0.0450648;0.0175241;-0.398427
0.00458;0.0430298;0.0196524;-0.398683
0.0046;0.0411227;0.0197333;-0.398427
0.00462;0.0390846;0.0172449;-0.397611
0.00464;0.0370877;0.0198587;-0.399228
0.00466;0.0350347;0.0176576;-0.398651
0.00468;0.0331438;0.0161322;-0.398251
0.0047;0.0311747;0.0172975;-0.398731
0.00472;0.0291383;0.0169536;-0.398619
0.00474;0.0271505;0.0213396;-0.397338
0.00476;0.0251587;0.0166096;-0.39894
0.00478;0.0232677;0.0167634;-0.398379
0.0048;0.0213402;0.0178073;-0.396938
0.00482;0.019218;0.0201581;-0.398731
0.00484;0.017329;0.0168403;-0.398443
0.00486;0.0154806;0.0179408;-0.398123
0.00488;0.0133949;0.0181634;-0.397483
0.0049;0.0114881;0.0181188;-0.398219
0.00492;0.00923239;0.0180096;-0.397386
0.00494;0.00736024;0.0202593;-0.39681
0.00496;0.00550387;0.0184142;-0.398667
0.00498;0.00342608;0.0192235;-0.398635
0.005;0.00148569;0.0192761;-0.39777
0.00502;-0.000456679;0.0181391;-0.397866
0.00504;-0.00255029;0.0156952;-0.39745
0.00506;-0.00441852;0.0181593;-0.397755
0.00508;-0.00649038;0.0192194;-0.399212
0.0051;-0.00848612;0.0181229;-0.399036
0.00512;-0.0104225;0.0190899;-0.398427
0.00514;-0.012526;0.0194986;-0.397803
0.00516;-0.0144891;0.0186732;-0.396442
0.00518;-0.0163969;0.0166622;-0.398427
0.0052;-0.0184095;0.0151611;-0.395273
0.00522;-0.0203647;0.0205263;-0.39729
0.00524;-0.0224573;0.021461;-0.398299
0.00526;-0.0243562;0.0172651;-0.398379
0.00528;-0.0262857;0.0196847;-0.397066
0.0053;-0.0283585;0.018046;-0.396442
0.00532;-0.0303019;0.018046;-0.397178
0.00534;-0.0322808;0.0198789;-0.398363
0.00536;-0.0343665;0.0192963;-0.397658
0.00538;-0.0362276;0.0197899;-0.397482
0.0054;-0.038269;0.0199923;-0.398571
0.00542;-0.0402062;0.016642;-0.398475
0.00544;-0.0420994;0.0196483;-0.398971
0.00546;-0.0442184;0.0190778;-0.395001
0.00548;-0.0461087;0.0171275;-0.397098
0.0055;-0.0480736;0.0169738;-0.398603
0.00552;-0.049691;0.0142426;-0.398763
0.00554;-0.0484395;0.0159501;-0.398235
0.00556;-0.0465586;0.0180784;-0.398668
0.00558;-0.0446249;0.0158449;-0.399244
0.0056;-0.0425828;0.0167593;-0.399019
0.00562;-0.0406323;0.019798;-0.398651
0.00564;-0.0386941;0.0180784;-0.398267
0.00566;-0.0366389;0.0192477;-0.397738
0.00568;-0.0346599;0.016642;-0.397866
0.0057;-0.0325644;0.0173784;-0.398459
0.00572;-0.030717;0.0200125;-0.398443
0.00574;-0.0287677;0.0148536;-0.398011
0.00576;-0.0267403;0.0192032;-0.396489
0.00578;-0.0247505;0.0202755;-0.398523
0.0058;-0.022824;0.0189969;-0.398155
0.00582;-0.0207719;0.017257;-0.398315
0.00584;-0.0189047;0.0177183;-0.397194
0.00586;-0.0168407;0.0186246;-0.397995
0.00588;-0.0148667;0.0193327;-0.397739
0.0059;-0.0128918;0.0172449;-0.397867
0.00592;-0.0108377;0.0210523;-0.397466
0.00594;-0.00887854;0.0176616;-0.397482
0.00596;-0.00690653;0.0199113;-0.397915
0.00598;-0.00480699;0.015064;-0.398523
0.006;-0.00293678;0.0151773;-0.398331
0.00602;-0.000881726;0.0186651;-0.398075
0.00604;0.00110611;0.018831;-0.398651
0.00606;0.00298818;0.0186975;-0.397242
0.00608;0.00505213;0.0177304;-0.396922
0.0061;0.00696683;0.0176899;-0.39753
0.00612;0.00889437;0.0185032;-0.398491
0.00614;0.010897;0.0181674;-0.398427
0.00616;0.0129975;0.0198708;-0.397595
0.00618;0.0150377;0.015857;-0.39761
0.0062;0.0169168;0.0195714;-0.396906
0.00622;0.0188453;0.0183373;-0.39705
0.00624;0.0209914;0.0180784;-0.398363
0.00626;0.0228764;0.0203078;-0.397707
0.00628;0.0248811;0.0177021;-0.398299
0.0063;0.0267899;0.0164316;-0.398347
0.00632;0.0287046;0.0190454;-0.398091
0.00634;0.0307675;0.020057;-0.398251
0.00636;0.0326901;0.0202026;-0.398587
0.00638;0.0346305;0.0181714;-0.398972
0.0064;0.036645;0.0192316;-0.398908
0.00642;0.038708;0.0196766;-0.399148
0.00644;0.0406076;0.0210928;-0.398763
0.00646;0.0425947;0.0192761;-0.398907
0.00648;0.0446169;0.0170507;-0.397467
0.0065;0.0465911;0.0142871;-0.398075
0.00652;0.0483988;0.0182483;-0.398876
0.00654;0.0474195;0.0182564;-0.399036
0.00656;0.0454868;0.0203604;-0.398235
0.00658;0.0435624;0.0163668;-0.398155
0.0066;0.0415685;0.0203523;-0.397065
0.00662;0.0395502;0.0177587;-0.396762
0.00664;0.0376195;0.0175402;-0.398939
0.00666;0.0355666;0.0177385;-0.398459
0.00668;0.0335085;0.0211292;-0.398235
0.0067;0.0316107;0.017346;-0.397434
0.00672;0.0295714;0.0192963;-0.398924
0.00674;0.0276093;0.0175605;-0.398203
0.00676;0.0256897;0.019353;-0.397995
0.00678;0.0236929;0.0181431;-0.398603
0.0068;0.0217248;0.0170992;-0.397899
0.00682;0.0197023;0.0171478;-0.397835
0.00684;0.0177244;0.0199801;-0.396651
0.00686;0.0158008;0.0159218;-0.396762
0.00688;0.0138071;0.017698;-0.397691
0.0069;0.0116532;0.0161079;-0.396522
0.00692;0.0096723;0.0169212;-0.398443
0.00694;0.00770918;0.0203807;-0.398988
0.00696;0.00575;0.0174027;-0.399164
0.00698;0.003776;0.018394;-0.398972
0.007;0.00182078;0.0187946;-0.397482
0.00702;-8.40208e-05;0.0180824;-0.397787
0.00704;-0.00215984;0.0197737;-0.397963
0.00706;-0.00412197;0.0166622;-0.398603
0.00708;-0.00610882;0.0192518;-0.399068
0.0071;-0.00813521;0.0179894;-0.398171
0.00712;-0.01004;0.0198547;-0.399116
0.00714;-0.0120772;0.0166663;-0.399003
0.00716;-0.0141007;0.0186813;-0.39689
0.00718;-0.0159847;0.0209876;-0.398203
0.0072;-0.0179656;0.0199963;-0.397258
0.00722;-0.0199396;0.0172449;-0.398107
0.00724;-0.0220272;0.0175928;-0.398683
0.00726;-0.0239636;0.018831;-0.397467
0.00728;-0.025908;0.0175362;-0.397386
0.0073;-0.0280026;0.0192032;-0.398011
0.00732;-0.02994;0.0198628;-0.398539
0.00734;-0.0318715;0.0179449;-0.397835
0.00736;-0.0339888;0.0192356;-0.39926
0.00738;-0.0357779;0.020498;-0.399292
0.0074;-0.0378578;0.0177547;-0.398603
0.00742;-0.0397536;0.0190495;-0.398716
0.00744;-0.0416863;0.01962;-0.398107
0.00746;-0.0437124;0.0172247;-0.39902
0.00748;-0.045746;0.0176293;-0.398683
0.0075;-0.0476832;0.0152218;-0.3991
0.00752;-0.0495378;0.0181391;-0.398875
0.00754;-0.0488408;0.0168403;-0.398491
0.00756;-0.0468523;0.0163264;-0.399052
0.00758;-0.0449936;0.0198425;-0.399132
0.0076;-0.0429941;0.0173298;-0.398507
0.00762;-0.0409824;0.0177709;-0.39926
0.00764;-0.0391697;0.0167796;-0.399244
0.00766;-0.0371283;0.0166501;-0.39825
0.00768;-0.0350941;0.0183414;-0.397963
0.0077;-0.0329905;0.0168281;-0.397675
0.00772;-0.0311203;0.0179894;-0.398139
0.00774;-0.0292323;0.018135;-0.39862
0.00776;-0.0270843;0.0182119;-0.398731
0.00778;-0.025133;0.0191628;-0.398764
0.0078;-0.0232232;0.0170102;-0.398603
0.00782;-0.0212236;0.0159703;-0.398923
0.00784;-0.0191883;0.0163749;-0.399148
0.00786;-0.0172114;0.0153553;-0.398923
0.00788;-0.0152196;0.0168402;-0.398539
0.0079;-0.0133208;0.0186651;-0.398891
0.00792;-0.0112222;0.01629;-0.39902
0.00794;-0.0092749;0.0189119;-0.397883
0.00796;-0.00729698;0.0174755;-0.398139
0.00798;-0.00525576;0.0173217;-0.398859
0.008;-0.00320466;0.0193003;-0.398907
0.00802;-0.00132753;0.0153148;-0.39761
0.00804;0.00067118;0.0188107;-0.398763
0.00806;0.00255127;0.0177709;-0.397771
0.00808;0.00463203;0.0165004;-0.397546
0.0081;0.00646171;0.016994;-0.398075
0.00812;0.00851676;0.0183333;-0.398571
0.00814;0.0105461;0.0192437;-0.397898
0.00816;0.0124163;0.0186246;-0.398971
0.00818;0.01459;0.0194541;-0.398187
0.0082;0.0165205;0.0203119;-0.397418
0.00822;0.0184312;0.0139351;-0.397867
0.00824;0.0204547;0.0189159;-0.398956
0.00826;0.0224445;0.0196524;-0.399308
0.00828;0.0245203;0.0180339;-0.399051
0.0083;0.0264428;0.0204252;-0.398459
0.00832;0.0283585;0.0179691;-0.39633
0.00834;0.0303127;0.0170223;-0.398812
0.00836;0.0323559;0.0199801;-0.39902
0.00838;0.0341698;0.017346;-0.3991
0.0084;0.036287;0.0188836;-0.398459
0.00842;0.0383234;0.0189726;-0.398539
0.00844;0.0402399;0.0158408;-0.398795
0.00846;0.0422407;0.0184304;-0.398123
0.00848;0.0441512;0.0197171;-0.398619
0.0085;0.0461601;0.0166501;-0.398187
0.00852;0.0482405;0.0170385;-0.397883
0.00854;0.0478504;0.0194784;-0.395433
0.00856;0.0458307;0.0181836;-0.398491
0.00858;0.0439103;0.0178437;-0.398876
0.0086;0.0418936;0.0201743;-0.397194
0.00862;0.0399673;0.0185558;-0.398123
0.00864;0.0380227;0.0175524;-0.397979
0.00866;0.0359145;0.0211332;-0.398411
0.00868;0.0338871;0.0184021;-0.397819
0.0087;0.0319656;0.0182524;-0.396362
0.00872;0.0298245;0.016383;-0.397867
0.00874;0.0279038;0.0175524;-0.398635
0.00876;0.0260504;0.0182321;-0.398187
0.00878;0.0240646;0.0180743;-0.397562
0.0088;0.0221202;0.017079;-0.397531
0.00882;0.0201571;0.0167634;-0.397098
0.00884;0.0180714;0.0169293;-0.396762
0.00886;0.0160934;0.0202876;-0.398395
0.00888;0.0141837;0.0196281;-0.397162
0.0089;0.0121276;0.0172206;-0.396954
0.00892;0.010124;0.0187055;-0.398379
0.00894;0.00816387;0.0165489;-0.399019
0.00896;0.0061276;0.0183899;-0.398779
0.00898;0.00419512;0.0194541;-0.399084
0.009;0.00223891;0.0171397;-0.39737
0.00902;0.000264913;0.0207408;-0.398683
0.00904;-0.00171502;0.0207772;-0.398635
0.00906;-0.00365343;0.0155414;-0.397979
0.00908;-0.00569267;0.0150316;-0.398331
0.0091;-0.00768348;0.0173096;-0.398972
0.00912;-0.00959221;0.0181027;-0.398251
0.00914;-0.0116314;0.0210038;-0.39769
0.00916;-0.0136331;0.0162981;-0.398267
0.00918;-0.0155913;0.0199882;-0.39886
0.0092;-0.0177105;0.0197859;-0.397899
0.00922;-0.0195669;0.0182847;-0.399372
0.00924;-0.0215814;0.0187581;-0.398315
0.00926;-0.0236651;0.0184992;-0.397866
0.00928;-0.0255798;0.017868;-0.397067
0.0093;-0.027537;0.0166056;-0.398315
0.00932;-0.0295901;0.0156588;-0.398395
0.00934;-0.0314495;0.0184952;-0.397578
0.00936;-0.0334788;0.0195067;-0.398683
0.00938;-0.0354182;0.020498;-0.397595
0.0094;-0.0373973;0.0182766;-0.397835
0.00942;-0.0394275;0.0179084;-0.398123
0.00944;-0.0413038;0.0196807;-0.397323
0.00946;-0.0433656;0.0183535;-0.398988
0.00948;-0.0453675;0.0206963;-0.398843
0.0095;-0.0473017;0.01752;-0.398395
0.00952;-0.0492442;0.0168848;-0.398795
0.00954;-0.0492183;0.0189888;-0.398427
0.00956;-0.0473454;0.0171639;-0.396825
0.00958;-0.0454018;0.0168079;-0.398107
0.0096;-0.0434122;0.0194015;-0.398764
0.00962;-0.0413026;0.0174431;-0.398267
0.00964;-0.0394791;0.0170345;-0.397946
0.00966;-0.0374555;0.0191789;-0.397771
0.00968;-0.0355113;0.0186287;-0.398427
0.0097;-0.0333958;0.0146432;-0.398507
0.00972;-0.0313912;0.0166784;-0.398988
0.00974;-0.0295438;0.0167836;-0.398651
0.00976;-0.027456;0.0185477;-0.397915
0.00978;-0.0255147;0.0185922;-0.399164
0.0098;-0.0235634;0.0184183;-0.399116
0.00982;-0.0215725;0.018746;-0.397787
0.00984;-0.0195194;0.0174189;-0.398315
0.00986;-0.0175801;0.0198425;-0.398731
0.00988;-0.0156417;0.0197576;-0.397578
0.0099;-0.0136529;0.0190414;-0.398091
0.00992;-0.0116621;0.0196443;-0.398107
0.00994;-0.00966242;0.0191992;-0.398683
0.00996;-0.00769534;0.0158489;-0.397066
0.00998;-0.0056304;0.0153391;-0.397033
0.01;-0.00372658;0.0191506;-0.398107
0.01002;-0.00169228;0.0170749;-0.398651
0.01004;0.000322245;0.0194015;-0.397659
0.01006;0.00229328;0.0198911;-0.397162
0.01008;0.00421094;0.0189847;-0.397642
0.0101;0.00619186;0.0163871;-0.396954
0.01012;0.00815103;0.0191304;-0.395145
0.01014;0.0101033;0.0220558;-0.397819
0.01016;0.0121484;0.0205911;-0.398299
0.01018;0.0142242;0.0200368;-0.396618
0.0102;0.0162012;0.0187784;-0.396634
0.01022;0.0181139;0.0175402;-0.396442
0.01024;0.020167;0.0179772;-0.397226
0.01026;0.0220638;0.0188067;-0.398123
0.01028;0.0240635;0.0201865;-0.397963
0.0103;0.0260533;0.0199437;-0.398235
0.01032;0.0279087;0.0160189;-0.398635
0.01034;0.0300527;0.0190292;-0.397915
0.01036;0.0318754;0.0161483;-0.396938
0.01038;0.0338337;0.0201865;-0.39785
0.0104;0.0359528;0.0169333;-0.399052
0.01042;0.037929;0.0180703;-0.399068
0.01044;0.0399839;0.0187136;-0.398939
