t;vds;corrente;vg
0;-0.00201947;0.0218778;0.0893501
2e-05;-0.00201848;0.0178437;0.372702
4e-05;-0.00202441;0.017957;0.391382
6e-05;-0.00197103;0.0214448;0.391382
8e-05;-0.00190085;0.017083;0.391382
0.0001;-0.00170217;0.0189645;0.391382
0.00012;-0.000464587;0.0224645;0.391382
0.00014;-0.000491276;0.0260373;0.391382
0.00016;-0.000359808;0.016638;0.391382
0.00018;0.00125636;0.0263569;0.391382
0.0002;0.00309197;0.0285742;0.391382
0.00022;0.0049177;0.0323776;0.391382
0.00024;0.00707457;0.0399562;0.391382
0.00026;0.0088993;0.0430758;0.391382
0.00028;0.0107586;0.0466769;0.391382
0.0003;0.0129708;0.0490116;0.391382
0.00032;0.01459;0.0529485;0.391382
0.00034;0.0167953;0.0599243;0.391382
0.00036;0.0187505;0.0636062;0.391382
0.00038;0.0205367;0.0691536;0.391382
0.0004;0.0226096;0.0730258;0.391382
0.00042;0.0244669;0.0760604;0.391382
0.00044;0.0262619;0.0812152;0.391382
0.00046;0.0283674;0.0834972;0.391382
0.00048;0.0301497;0.0872279;0.391382
0.0005;0.032095;0.0913267;0.391382
0.00052;0.0340936;0.0913711;0.391382
0.00054;0.0360685;0.0994475;0.391382
0.00056;0.0380189;0.0988285;0.391382
0.00058;0.0400966;0.103656;0.391382
0.0006;0.0418573;0.108705;0.391382
0.00062;0.0437945;0.113375;0.391382
0.00064;0.0457836;0.115628;0.391382
0.00066;0.0474846;0.118716;0.391382
0.00068;0.0464428;0.113302;0.391382
0.0007;0.0444618;0.11318;0.391382
0.00072;0.0423633;0.108754;0.391382
0.00074;0.0405108;0.10754;0.391382
0.00076;0.038696;0.104206;0.391382
0.00078;0.0367269;0.0988445;0.391382
0.0008;0.0346599;0.095559;0.391382
0.00082;0.0325822;0.0907036;0.391382
0.00084;0.0306903;0.0881747;0.391382
0.00086;0.0287341;0.0810777;0.391382
0.00088;0.0268965;0.0778003;0.391382
0.0009;0.0249739;0.0759835;0.391382
0.00092;0.0230345;0.0712252;0.391382
0.00094;0.021108;0.0682351;0.391382
0.00096;0.0191597;0.0647473;0.391382
0.00098;0.0171185;0.0595519;0.391382
0.001;0.0153214;0.0528069;0.391382
0.00102;0.0133257;0.0515283;0.391382
0.00104;0.0113369;0.0486474;0.391382
0.00106;0.00947854;0.0461428;0.391382
0.00108;0.00751642;0.0401989;0.391382
0.0011;0.00570552;0.0412105;0.391382
0.00112;0.00371768;0.030917;0.391382
0.00114;0.00172787;0.0251714;0.391382
0.00116;-0.000237235;0.0175241;0.391382
0.00118;-0.00223397;0.017168;0.392038
0.0012;-0.00397667;0.00885308;0.393335
0.00122;-0.00587653;0.00987678;0.393431
0.00124;-0.00782187;0.0022861;0.391526
0.00126;-0.00974642;0.000882067;0.391382
0.00128;-0.0119042;-0.00643346;0.391382
0.0013;-0.0136588;-0.0154079;0.391382
0.00132;-0.0157742;-0.0125108;0.391382
0.00134;-0.0176137;-0.0151166;0.391382
0.00136;-0.0196945;-0.0304436;0.391382
0.00138;-0.0212879;-0.029161;0.391382
0.0014;-0.0236988;-0.0332193;0.391382
0.00142;-0.025051;-0.0392845;0.391382
0.00144;-0.0276775;-0.0492503;0.391382
0.00146;-0.0292728;-0.0469237;0.391382
0.00148;-0.0308603;-0.0571444;0.391382
0.0015;-0.0336735;-0.0669808;0.391382
0.00152;-0.0348261;-0.0659126;0.391382
0.00154;-0.0367318;-0.0753685;0.391382
0.00156;-0.0394749;-0.0761697;0.391382
0.00158;-0.0406068;-0.0832666;0.391382
0.0016;-0.0427094;-0.0887412;0.391398
0.00162;-0.0449266;-0.0958788;0.391382
0.00164;-0.0463281;-0.0998966;0.391382
0.00166;-0.0483999;-0.107451;0.391558
0.00168;-0.0476111;-0.104894;0.391414
0.0017;-0.0453454;-0.0987313;0.391382
0.00172;-0.0440389;-0.0961417;0.391382
0.00174;-0.0416832;-0.0857105;0.391382
0.00176;-0.0397014;-0.0806569;0.39143
0.00178;-0.0382066;-0.0761251;0.391382
0.0018;-0.0358917;-0.0719617;0.391382
0.00182;-0.0338673;-0.0626554;0.391382
0.00184;-0.0324073;-0.0614415;0.391382
0.00186;-0.0301131;-0.0532479;0.391382
0.00188;-0.0284011;-0.0495173;0.391382
0.0019;-0.0264764;-0.0459405;0.391382
0.00192;-0.024195;-0.0381031;0.391382
0.00194;-0.022656;-0.0335065;0.391382
0.00196;-0.0205791;-0.0291002;0.391382
0.00198;-0.0184589;-0.0233668;0.391382
0.002;-0.016731;-0.0193165;0.391382
0.00202;-0.0147441;-0.0115316;0.391382
0.00204;-0.0129125;-0.00514676;0.391382
0.00206;-0.0108377;-0.00209998;0.391382
0.00208;-0.00875299;-0.000813286;0.391382
0.0021;-0.00701526;0.00742072;0.391382
0.00212;-0.00500765;0.0112565;0.391382
0.00214;-0.00315029;0.0158247;0.391382
0.00216;-0.00110809;0.0168969;0.391382
0.00218;0.000823406;0.0254182;0.391382
0.0022;0.00278159;0.0295494;0.391382
0.00222;0.0047546;0.033721;0.391382
0.00224;0.00652992;0.0397296;0.391382
0.00226;0.00843769;0.0424001;0.391382
0.00228;0.0104393;0.0481214;0.391382
0.0023;0.0121721;0.045463;0.391382
0.00232;0.0145227;0.0558699;0.391382
0.00234;0.0162891;0.0584918;0.391382
0.00236;0.0181277;0.0648768;0.391382
0.00238;0.0202905;0.065775;0.391382
0.0024;0.0219334;0.0691657;0.391382
0.00242;0.0241297;0.0766147;0.391382
0.00244;0.0260158;0.0783506;0.391382
0.00246;0.0277456;0.0840476;0.391382
0.00248;0.0297819;0.0871955;0.391382
0.0025;0.0317717;0.0899632;0.391382
0.00252;0.0334433;0.095377;0.391382
0.00254;0.0357325;0.100152;0.391382
0.00256;0.0376344;0.102146;0.391382
0.00258;0.0395511;0.107961;0.391382
0.0026;0.0417219;0.111432;0.391382
0.00262;0.043498;0.113553;0.391382
0.00264;0.0454969;0.11963;0.391382
0.00266;0.0473838;0.121888;0.391382
0.00268;0.0466762;0.118469;0.391382
0.0027;0.0449007;0.118214;0.391382
0.00272;0.0427074;0.109778;0.391382
0.00274;0.040841;0.111117;0.391382
0.00276;0.0389976;0.104708;0.391382
0.00278;0.0370769;0.098452;0.391382
0.0028;0.0349091;0.100775;0.391382
0.00282;0.032947;0.0929655;0.391382
0.00284;0.0312033;0.0931798;0.391382
0.00286;0.0291512;0.0833557;0.391382
0.00288;0.0271911;0.0843794;0.391382
0.0029;0.0253149;0.0779297;0.391382
0.00292;0.0233676;0.0766794;0.391382
0.00294;0.0216042;0.069364;0.391382
0.00296;0.0194987;0.0646825;0.391382
0.00298;0.0175465;0.0607658;0.391382
0.003;0.0155873;0.057545;0.391382
0.00302;0.0136074;0.053248;0.391382
0.00304;0.011751;0.0473364;0.391382
0.00306;0.00977213;0.048437;0.391382
0.00308;0.0077072;0.0425053;0.391382
0.0031;0.00594078;0.0365655;0.391382
0.00312;0.00420204;0.0299257;0.391382
0.00314;0.00213117;0.0265066;0.392887
0.00316;-0.000225374;0.0207934;0.393031
0.00318;-0.00177235;0.0190293;0.391606
0.0032;-0.00370879;0.0132755;0.391382
0.00322;-0.00562051;0.00608952;0.391382
0.00324;-0.0076469;0.00523983;0.391382
0.00326;-0.00943109;-0.00160634;0.391382
0.00328;-0.0113547;-0.00353233;0.391382
0.0033;-0.0135105;-0.0101559;0.391382
0.00332;-0.0153857;-0.0158489;0.391382
0.00334;-0.0172233;-0.0202876;0.391382
0.00336;-0.0192368;-0.0275748;0.391382
0.00338;-0.0211821;-0.0349874;0.391382
0.0034;-0.023079;-0.0359909;0.391382
0.00342;-0.0250936;-0.042744;0.391382
0.00344;-0.0270083;-0.0492098;0.391382
0.00346;-0.0289764;-0.0494608;0.391382
0.00348;-0.0307982;-0.0554532;0.391382
0.0035;-0.0326832;-0.0635941;0.391382
0.00352;-0.0347115;-0.068494;0.391382
0.00354;-0.0365866;-0.0747818;0.391382
0.00356;-0.0385389;-0.0786581;0.391382
0.00358;-0.0403614;-0.0847516;0.391382
0.0036;-0.0423752;-0.0934713;0.391382
0.00362;-0.0443233;-0.0947093;0.391382
0.00364;-0.0461463;-0.10128;0.391382
0.00366;-0.0479738;-0.108382;0.391382
0.00368;-0.0478228;-0.10421;0.391382
0.0037;-0.0460859;-0.101649;0.391382
0.00372;-0.0441268;-0.0910758;0.391382
0.00374;-0.0421368;-0.0897891;0.391382
0.00376;-0.0401382;-0.0823441;0.391382
0.00378;-0.03835;-0.0762587;0.391382
0.0038;-0.0362436;-0.0706992;0.391382
0.00382;-0.0345127;-0.0739847;0.391382
0.00384;-0.0325437;-0.0621375;0.391382
0.00386;-0.0305134;-0.0571283;0.391382
0.00388;-0.0287509;-0.0505006;0.391382
0.0039;-0.0267463;-0.0467659;0.391382
0.00392;-0.0248019;-0.0390094;0.391382
0.00394;-0.0230029;-0.0342591;0.391382
0.00396;-0.0209449;-0.0327418;0.391382
0.00398;-0.0189926;-0.0285054;0.391382
0.004;-0.0170256;-0.019624;0.391382
0.00402;-0.0152493;-0.0134779;0.391382
0.00404;-0.013302;-0.00750568;0.391382
0.00406;-0.0113013;-0.00538953;0.391382
0.00408;-0.00923933;0.00161039;0.391382
0.0041;-0.00737902;0.00149709;0.391382
0.00412;-0.00545939;0.0073398;0.391382
0.00414;-0.00342509;0.0142992;0.391382
0.00416;-0.00142638;0.0184426;0.391382
0.00418;0.000470518;0.022946;0.391382
0.0042;0.00237137;0.0279673;0.391382
0.00422;0.00435229;0.0335915;0.391382
0.00424;0.00619878;0.0357562;0.391382
0.00426;0.00800375;0.0423799;0.391382
0.00428;0.00995498;0.0458434;0.391382
0.0043;0.0118716;0.0498694;0.391382
0.00432;0.0140285;0.0552832;0.391382
0.00434;0.0158987;0.0563392;0.391382
0.00436;0.017759;0.0637438;0.391382
0.00438;0.0197498;0.0658236;0.391382
0.0044;0.0218049;0.0776911;0.391382
0.00442;0.023341;0.0735032;0.391382
0.00444;0.0257163;0.0813286;0.391382
0.00446;0.0272988;0.0815308;0.391382
0.00448;0.0293381;0.0885712;0.391382
0.0045;0.0315186;0.091088;0.391382
0.00452;0.0331863;0.0967649;0.391382
0.00454;0.035265;0.0991683;0.391382
0.00456;0.0373073;0.104606;0.39143
0.00458;0.0391755;0.105966;0.391382
0.0046;0.0413561;0.106646;0.391382
0.00462;0.043166;0.113411;0.391382
0.00464;0.0449454;0.114293;0.391398
0.00466;0.0470745;0.121475;0.391382
0.00468;0.0473088;0.121511;0.391382
0.0047;0.0451755;0.118861;0.391382
0.00472;0.0433628;0.114459;0.391382
0.00474;0.0412334;0.107694;0.391382
0.00476;0.0392873;0.106836;0.391382
0.00478;0.0375662;0.101382;0.391382
0.0048;0.0354766;0.09617;0.391382
0.00482;0.0333859;0.0955915;0.391382
0.00484;0.0316284;0.0878995;0.391382
0.00486;0.0295586;0.0882799;0.391382
0.00488;0.0276775;0.0813852;0.391382
0.0049;0.0258211;0.0808915;0.391398
0.00492;0.0237937;0.0795401;0.391382
0.00494;0.0219898;0.0712859;0.391382
0.00496;0.0199683;0.0685669;0.391382
0.00498;0.0179686;0.0636143;0.391382
0.005;0.0161527;0.0619837;0.391382
0.00502;0.0140868;0.0540815;0.391382
0.00504;0.0120713;0.0499908;0.391382
0.00506;0.0102238;0.0501526;0.391382
0.00508;0.0081194;0.0431203;0.392311
0.0051;0.00607324;0.0350563;0.392663
0.00512;0.0042653;0.0332435;0.392758
0.00514;0.00256215;0.0242044;0.39151
0.00516;0.000627685;0.0226708;0.391382
0.00518;-0.00128997;0.0184385;0.391382
0.0052;-0.00314832;0.0144692;0.391382
0.00522;-0.00511342;0.00989699;0.391382
0.00524;-0.00711708;0.00605311;0.391382
0.00526;-0.00900309;0.000789009;0.391382
0.00528;-0.0110196;-0.00479475;0.391382
0.0053;-0.0129956;-0.0109126;0.391382
0.00532;-0.0148341;-0.0178194;0.391382
0.00534;-0.0168289;-0.0222379;0.391382
0.00536;-0.0188661;-0.0242488;0.391382
0.00538;-0.0206889;-0.0313459;0.391382
0.0054;-0.0227479;-0.0332112;0.391382
0.00542;-0.0245825;-0.0369903;0.391382
0.00544;-0.0265418;-0.0443665;0.391382
0.00546;-0.0284435;-0.0526491;0.391382
0.00548;-0.0303235;-0.0544335;0.391382
0.0055;-0.0321928;-0.0614456;0.391382
0.00552;-0.034232;-0.0675189;0.391382
0.00554;-0.0361674;-0.0741061;0.391382
0.00556;-0.0380407;-0.0766957;0.391382
0.00558;-0.0399483;-0.0838574;0.391382
0.0056;-0.0418128;-0.0897285;0.391382
0.00562;-0.043836;-0.0906794;0.391382
0.00564;-0.0457223;-0.0997955;0.391382
0.00566;-0.0476041;-0.107544;0.391382
0.00568;-0.0481904;-0.106464;0.391382
0.0057;-0.0462589;-0.100811;0.391382
0.00572;-0.0444065;-0.0975943;0.391382
0.00574;-0.0423732;-0.0891984;0.391382
0.00576;-0.0405395;-0.0873696;0.391382
0.00578;-0.0386584;-0.0776384;0.391382
0.0058;-0.0367496;-0.0748425;0.391382
0.00582;-0.0348133;-0.0700195;0.391382
0.00584;-0.0328452;-0.0606606;0.391382
0.00586;-0.0309354;-0.0583502;0.391382
0.00588;-0.0289782;-0.0528838;0.391382
0.0059;-0.0269221;-0.0449087;0.391382
0.00592;-0.0250975;-0.0424203;0.391382
0.00594;-0.0232213;-0.0372453;0.391382
0.00596;-0.0212809;-0.0330696;0.391382
0.00598;-0.0193504;-0.024698;0.391382
0.006;-0.0173458;-0.0192275;0.391382
0.00602;-0.0153718;-0.0167229;0.391382
0.00604;-0.0135382;-0.00999814;0.391382
0.00606;-0.01158;-0.00520745;0.391382
0.00608;-0.0095853;-0.000999412;0.391382
0.0061;-0.00768743;0.00152946;0.391382
0.00612;-0.00577472;0.0105039;0.391382
0.00614;-0.00378687;0.0102045;0.391382
0.00616;-0.00182869;0.0201136;0.391382
0.00618;0.00011071;0.0242003;0.391382
0.0062;0.00195917;0.0284893;0.391382
0.00622;0.00395393;0.0286349;0.391382
0.00624;0.00582216;0.0382042;0.391382
0.00626;0.007639;0.0407695;0.391382
0.00628;0.00966833;0.0471908;0.391382
0.0063;0.0115336;0.0495902;0.391382
0.00632;0.0136697;0.053604;0.391382
0.00634;0.0154974;0.0561248;0.391382
0.00636;0.0174842;0.0631571;0.391382
0.00638;0.0193564;0.0660663;0.391382
0.0064;0.0213057;0.0732645;0.391382
0.00642;0.0233123;0.0757448;0.391382
0.00644;0.0252191;0.0763234;0.391382
0.00646;0.0271714;0.0808268;0.391382
0.00648;0.0289457;0.0837765;0.391382
0.0065;0.0309918;0.088199;0.391382
0.00652;0.0329431;0.101438;0.391382
0.00654;0.0347698;0.097477;0.391382
0.00656;0.0367705;0.101774;0.391382
0.00658;0.0389748;0.108264;0.391382
0.0066;0.0407315;0.111525;0.391382
0.00662;0.0428823;0.114552;0.391382
0.00664;0.0446556;0.109061;0.391398
0.00666;0.0466732;0.129054;0.391382
0.00668;0.0471259;0.111598;0.391382
0.0067;0.0454513;0.116369;0.391382
0.00672;0.0440547;0.120706;0.391382
0.00674;0.0414115;0.106136;0.391814
0.00676;0.0394344;0.108123;0.391382
0.00678;0.0384726;0.107888;0.391958
0.0068;0.0354083;0.0967326;0.39175
0.00682;0.0336557;0.0965058;0.391526
0.00684;0.0324716;0.0932446;0.391398
0.00686;0.0294301;0.0892794;0.392007
0.00688;0.0282508;0.0855042;0.39143
0.0069;0.026429;0.076639;0.391398
0.00692;0.0238085;0.0762708;0.391382
0.00694;0.022733;0.0737783;0.391622
0.00696;0.0204457;0.0681258;0.391622
0.00698;0.0181821;0.0664143;0.391382
0.007;0.0168377;0.0564728;0.391382
0.00702;0.0141817;0.0605312;0.39167
0.00704;0.0126219;0.0535959;0.391734
0.00706;0.0111224;0.0469723;0.392471
0.00708;0.00837343;0.0393533;0.392007
0.0071;0.00675826;0.0407654;0.391382
0.00712;0.00501358;0.0317909;0.391382
0.00714;0.00287747;0.0314673;0.391398
0.00716;0.0010557;0.0258916;0.391382
0.00718;-0.000851084;0.0190697;0.391382
0.0072;-0.00298324;0.0135386;0.391382
0.00722;-0.00468837;0.0115195;0.391382
0.00724;-0.00673948;0.00450746;0.391558
0.00726;-0.00895169;0.00123005;0.391382
0.00728;-0.0105837;-0.00148496;0.391382
0.0073;-0.0124628;-0.00296587;0.391382
0.00732;-0.0146463;-0.014886;0.391382
0.00734;-0.0163396;-0.0156345;0.391382
0.00736;-0.0184845;-0.0239494;0.391382
0.00738;-0.0202925;-0.0281494;0.391382
0.0074;-0.0221498;-0.0342065;0.391382
0.00742;-0.0242414;-0.036173;0.391382
0.00744;-0.0260701;-0.0429584;0.391382
0.00746;-0.0280392;-0.0483116;0.391382
0.00748;-0.0300319;-0.0517145;0.391382
0.0075;-0.0318231;-0.0585282;0.391382
0.00752;-0.0339068;-0.0656739;0.391382
0.00754;-0.0357216;-0.0693073;0.391382
0.00756;-0.0377432;-0.0758419;0.391382
0.00758;-0.0397042;-0.0843713;0.391382
0.0076;-0.0415065;-0.0881707;0.391382
0.00762;-0.0434466;-0.0928481;0.391382
0.00764;-0.0453863;-0.0992493;0.391382
0.00766;-0.0472148;-0.100673;0.391382
0.00768;-0.0483317;-0.10911;0.391382
0.0077;-0.0466693;-0.100953;0.391382
0.00772;-0.0447357;-0.0957007;0.391382
0.00774;-0.0427311;-0.0924434;0.391382
0.00776;-0.0408726;-0.086451;0.391382
0.00778;-0.0389888;-0.080758;0.391382
0.0078;-0.0370976;-0.0762708;0.391382
0.00782;-0.0352878;-0.0708085;0.391382
0.00784;-0.0332801;-0.0646745;0.391382
0.00786;-0.031317;-0.0567601;0.391382
0.00788;-0.0294103;-0.050889;0.391382
0.0079;-0.0274817;-0.0470087;0.391382
0.00792;-0.0255393;-0.0437717;0.391382
0.00794;-0.0235496;-0.0401706;0.391382
0.00796;-0.0215815;-0.0308239;0.391382
0.00798;-0.0196569;-0.0276922;0.391382
0.008;-0.017754;-0.0217928;0.391382
0.00802;-0.0158868;-0.0180865;0.391382
0.00804;-0.0139415;-0.0116328;0.391382
0.00806;-0.0118865;-0.00530861;0.391382
0.00808;-0.0100657;-0.00225373;0.391382
0.0081;-0.00814707;0.00270286;0.391382
0.00812;-0.00629861;0.00953688;0.391382
0.00814;-0.00426827;0.0135426;0.391382
0.00816;-0.0021717;0.0181027;0.391382
0.00818;-0.000362773;0.0230997;0.391382
0.0082;0.00155291;0.0270529;0.391382
0.00822;0.00350318;0.0315603;0.391382
0.00824;0.00531606;0.0368366;0.391382
0.00826;0.00723569;0.0393776;0.391382
0.00828;0.00913654;0.0434642;0.391382
0.0083;0.011066;0.0465879;0.391382
0.00832;0.0131952;0.0532641;0.391382
0.00834;0.0151554;0.052985;0.391382
0.00836;0.0170177;0.0640068;0.391382
0.00838;0.0189393;0.0640271;0.391382
0.0084;0.020938;0.0728073;0.391382
0.00842;0.0228972;0.071298;0.391382
0.00844;0.0247703;0.079613;0.391382
0.00846;0.0268066;0.0850632;0.391382
0.00848;0.028574;0.0848083;0.391382
0.0085;0.0306736;0.0920591;0.391382
0.00852;0.0325417;0.0927429;0.391462
0.00854;0.034503;0.0995203;0.391382
0.00856;0.0364758;0.097299;0.391382
0.00858;0.0384321;0.105873;0.391382
0.0086;0.0404791;0.109523;0.391382
0.00862;0.042389;0.119634;0.391382
0.00864;0.0440435;0.120083;0.391382
0.00866;0.0463895;0.119165;0.391382
0.00868;0.0474036;0.122098;0.391382
0.0087;0.045805;0.117801;0.391382
0.00872;0.0441248;0.11736;0.391382
0.00874;0.0419678;0.113079;0.391382
0.00876;0.0401966;0.108887;0.391382
0.00878;0.0383707;0.104153;0.391382
0.0088;0.0360153;0.0999857;0.391382
0.00882;0.0342775;0.0982215;0.391382
0.00884;0.0322471;0.0921521;0.391382
0.00886;0.0301704;0.0876568;0.391382
0.00888;0.028408;0.0873372;0.391382
0.0089;0.0265545;0.0841163;0.391382
0.00892;0.0245282;0.0767604;0.391382
0.00894;0.0227459;0.0736287;0.391382
0.00896;0.0205584;0.0672883;0.391382
0.00898;0.0186793;0.0629872;0.392182
0.009;0.016904;0.0575491;0.392679
0.00902;0.0149596;0.0581317;0.391734
0.00904;0.0128236;0.0512734;0.391382
0.00906;0.0110601;0.0473607;0.391382
0.00908;0.00891016;0.0414128;0.391382
0.0091;0.00717045;0.0391712;0.391382
0.00912;0.00503632;0.0334499;0.391382
0.00914;0.00324519;0.0334054;0.391382
0.00916;0.00143528;0.0261425;0.391382
0.00918;-0.000399347;0.0212992;0.391382
0.0092;-0.00242771;0.0160796;0.391382
0.00922;-0.0045144;0.013401;0.391382
0.00924;-0.00647654;0.00487972;0.391382
0.00926;-0.0084021;0.0033543;0.391382
0.00928;-0.0103;-0.00427279;0.391382
0.0093;-0.0122868;-0.00574964;0.391382
0.00932;-0.0141283;-0.0125351;0.391382
0.00934;-0.0160924;-0.0192923;0.391382
0.00936;-0.0180783;-0.0226789;0.391382
0.00938;-0.0199999;-0.0259968;0.391382
0.0094;-0.0219581;-0.0319123;0.391382
0.00942;-0.0238065;-0.0369175;0.391382
0.00944;-0.0256451;-0.0464058;0.391382
0.00946;-0.0276447;-0.0457139;0.391382
0.00948;-0.0296188;-0.0582734;0.391382
0.0095;-0.0315424;-0.0645369;0.391382
0.00952;-0.0334709;-0.0645166;0.391382
0.00954;-0.035352;-0.0706142;0.391382
0.00956;-0.0374081;-0.0767726;0.391382
0.00958;-0.0392308;-0.0828296;0.391382
0.0096;-0.0411852;-0.0887573;0.391382
0.00962;-0.0432005;-0.0904528;0.391382
0.00964;-0.0450145;-0.100528;0.391382
0.00966;-0.0469114;-0.106577;0.391382
0.00968;-0.0483307;-0.110469;0.391382
0.0097;-0.047045;-0.104291;0.391382
0.00972;-0.0452665;-0.0970764;0.391382
0.00974;-0.0431711;-0.0915331;0.391382
0.00976;-0.0412819;-0.0900967;0.391382
0.00978;-0.0394701;-0.0778488;0.391382
0.0098;-0.0375918;-0.0776667;0.391382
0.00982;-0.0355182;-0.0698333;0.391382
0.00984;-0.0336528;-0.066908;0.391382
0.00986;-0.0315958;-0.0587427;0.391382
0.00988;-0.0297622;-0.0558497;0.391382
0.0099;-0.0279404;-0.0514514;0.391382
0.00992;-0.0258132;-0.042744;0.391382
0.00994;-0.0240142;-0.0371158;0.391382
0.00996;-0.0221746;-0.0338586;0.391382
0.00998;-0.0202302;-0.025487;0.391382
0.01;-0.0182374;-0.0200124;0.391382
0.01002;-0.0162328;-0.0190252;0.391382
0.01004;-0.0144249;-0.00922533;0.391382
0.01006;-0.0124104;-0.00809644;0.391382
0.01008;-0.0104601;-0.00233466;0.391382
0.0101;-0.0086245;-0.00168322;0.391382
0.01012;-0.00653486;0.00769181;0.391382
0.01014;-0.0045826;0.0106496;0.391382
0.01016;-0.00264617;0.0141536;0.391382
0.01018;-0.000674145;0.0179853;0.391382
0.0102;0.00113379;0.0233385;0.391382
0.01022;0.00308407;0.0305083;0.391382
0.01024;0.00506301;0.0380787;0.391382
0.01026;0.00680472;0.0393776;0.391382
0.01028;0.00886865;0.045022;0.391382
0.0103;0.0108199;0.0488173;0.391382
0.01032;0.0127731;0.053782;0.391382
0.01034;0.0147076;0.056141;0.391382
0.01036;0.0166045;0.0625218;0.391382
0.01038;0.018708;0.0662079;0.391382
0.0104;0.0206474;0.0696067;0.391382
0.01042;0.022486;0.0730136;0.391382
0.01044;0.0243106;0.0771326;0.391382
0.01046;0.0263568;0.0816361;0.391382
0.01048;0.0282992;0.0853666;0.391382
0.0105;0.0301249;0.0894897;0.391382
0.01052;0.0321098;0.0918891;0.391382
0.01054;0.0341707;0.0986544;0.391382
0.01056;0.0361081;0.100253;0.391382
0.01058;0.0379538;0.105351;0.391382
0.0106;0.0400551;0.107273;0.391382
