t;vds;corrente;vg
0.02495;0.115514;0.19467;0.578089
0.0499;0.113388;0.197133;0.584857
0.07485;0.112051;0.195617;0.582229
0.0998;0.111005;0.197102;0.575173
0.12475;0.109752;0.196016;0.570113
0.1497;0.108388;0.195936;0.566016
0.17465;0.106688;0.196008;0.559825
0.1996;0.105132;0.196455;0.556237
0.22455;0.104098;0.195832;0.550888
0.2495;0.1033;0.197006;0.543527
0.27445;0.101739;0.195984;0.540501
0.2994;0.100462;0.197062;0.534993
0.32435;0.0993804;0.195737;0.528242
0.3493;0.0980157;0.195313;0.523133
0.37425;0.0972934;0.195992;0.519179
0.3992;0.0962081;0.196415;0.512043
0.42415;0.0947557;0.196654;0.510682
0.4491;0.0939018;0.196088;0.504212
0.47405;0.0927845;0.195697;0.500389
0.499;0.0916392;0.196239;0.494916
0.52395;0.0911564;0.196096;0.487533
0.5489;0.0902028;0.196008;0.484671
0.57385;0.0890217;0.195928;0.479246
0.5988;0.0886346;0.195553;0.47324
0.62375;0.0874495;0.19604;0.469976
0.6487;0.086855;0.195617;0.463223
0.67365;0.0855381;0.195728;0.457009
0.6986;0.0850273;0.196535;0.452433
0.72355;0.0839377;0.196415;0.447296
0.7485;0.0832712;0.196056;0.444541
0.77345;0.0828762;0.195992;0.43913
0.7984;0.0817868;0.196694;0.43241
0.82335;0.08128;0.19604;0.428742
0.8483;0.0804221;0.196024;0.423331
0.87325;0.0797637;0.195968;0.419476
0.8982;0.0792051;0.195768;0.415138
0.92315;0.0781676;0.195856;0.408557
0.9481;0.0775172;0.195425;0.406029
0.97305;0.0768588;0.196191;0.399372
0.998;0.0760209;0.195473;0.394919
1.02295;0.0758014;0.196032;0.391238
1.0479;0.0750832;0.195465;0.384165
1.07285;0.0745843;0.195545;0.378577
1.0978;0.0737583;0.195481;0.374174
1.12275;0.0731398;0.196112;0.367514
1.1477;0.0728525;0.196391;0.36649
1.17265;0.0721821;0.196144;0.359721
1.1976;0.0718509;0.195744;0.355685
1.22255;0.0712883;0.195776;0.351252
1.2475;0.0709412;0.196008;0.343746
1.27245;0.0708733;0.195928;0.338895
1.2974;0.0702788;0.195984;0.335469
1.32235;0.069768;0.195649;0.330157
1.3473;0.0696004;0.197444;0.327179
1.37225;0.0686468;0.195808;0.319927
1.3972;0.0686508;0.196702;0.315303
1.42215;0.068144;0.196806;0.311509
1.4471;0.0677849;0.196168;0.305041
1.47205;0.06735;0.196615;0.302033
1.497;0.0671425;0.196088;0.295535
1.52195;0.0669908;0.196;0.290332
1.5469;0.0667514;0.196455;0.287403
1.57185;0.0661409;0.19592;0.280232
1.5968;0.0651673;0.195952;0.275734
1.62175;0.065291;0.195465;0.271492
1.6467;0.0649359;0.195736;0.264689
1.67165;0.0649319;0.196423;0.262096
1.6966;0.0642216;0.19525;0.25619
1.72155;0.06405;0.195266;0.25286
1.7465;0.0639862;0.195274;0.247418
1.77145;0.0634076;0.196048;0.243144
1.7964;0.0636949;0.195752;0.238646
1.82135;0.0634276;0.195729;0.23178
1.8463;0.0633518;0.195976;0.228066
1.87125;0.0625776;0.196862;0.223648
1.8962;0.0623582;0.195553;0.217629
1.92115;0.0619113;0.196391;0.214124
1.9461;0.0620589;0.195561;0.207785
1.97105;0.0617636;0.19691;0.201831
1.996;0.0615681;0.195808;0.198886
2.02095;0.0611212;0.196136;0.191699
2.0459;0.0608259;0.196974;0.188479
2.07085;0.0610214;0.196223;0.183741
2.0958;0.060375;0.195377;0.176714
2.12075;0.0603192;0.195713;0.172921
2.1457;0.0604309;0.195337;0.167735
2.17065;0.0599121;0.196447;0.164309
2.1956;0.05998;0.198107;0.159747
2.22055;0.0598283;0.196215;0.153249
2.2455;0.0595809;0.196;0.150976
2.27045;0.0592657;0.197117;0.143917
2.2954;0.0590622;0.195401;0.140156
2.32035;0.0587908;0.195681;0.135658
2.3453;0.0589185;0.198019;0.129832
2.37025;0.0580245;0.197165;0.125238
2.3952;0.0581762;0.196766;0.119603
2.42015;0.0577931;0.196455;0.113057
2.4451;0.0580126;0.195968;0.110575
2.47005;0.057422;0.196399;0.103965
2.495;0.0574061;0.196167;0.0996749
2.51995;0.0575377;0.196143;0.0958333
2.5449;0.0569831;0.195744;0.0900057
2.56985;0.0569551;0.195537;0.0858121
2.5948;0.0565202;0.195784;0.0798737
2.61975;0.0567317;0.196495;0.0767685
2.6447;0.0562568;0.196;0.0718866
2.66965;0.0559855;0.195513;0.0661243
2.6946;0.0558059;0.195417;0.0627629
2.71955;0.0558698;0.195641;0.055976
2.7445;0.0556743;0.196088;0.0522785
2.76945;0.054944;0.195984;0.0478766
2.7944;0.0550597;0.195641;0.0418736
2.81935;0.0551874;0.195449;0.0364635
2.8443;0.0550717;0.195258;0.0319497
2.86925;0.0545889;0.195513;0.0273238
2.8942;0.0543894;0.195872;0.0230178
2.91915;0.0540263;0.195513;0.016295
2.9441;0.0543135;0.19659;0.0116689
2.96905;0.0537828;0.196167;0.00779534
2.994;0.053731;0.195992;0.000528224
3.01895;0.0536432;0.195816;-0.000608259
3.0439;0.0535993;0.195904;-0.0074752
3.06885;0.0531723;0.195856;-0.011877
3.0938;0.0530566;0.195808;-0.0169192
3.11875;0.052873;0.196782;-0.0236422
3.1437;0.0521428;0.195593;-0.0269555
3.16865;0.052454;0.196271;-0.0319497
3.1936;0.0520988;0.195673;-0.037776
3.21855;0.0519871;0.196319;-0.0410735
3.2435;0.0523543;0.195625;-0.0477646
3.26845;0.0519392;0.196734;-0.0539751
3.2934;0.0515081;0.195649;-0.0582169
3.31835;0.0513246;0.19588;-0.0638674
3.3433;0.0510012;0.19525;-0.0671326
3.36825;0.051129;0.195625;-0.0719667
3.3932;0.0508736;0.19529;-0.0795216
3.41815;0.0504385;0.195266;-0.0835552
3.4431;0.0506302;0.195337;-0.0878609
3.46805;0.0504145;0.196431;-0.0924238
3.493;0.0503347;0.196455;-0.0960574
3.51795;0.0501791;0.195609;-0.10294
3.5429;0.0496643;0.195489;-0.105485
3.56785;0.0497521;0.195505;-0.111824
3.5928;0.0496085;0.195553;-0.116018
3.61775;0.0496963;0.195561;-0.119875
3.6427;0.0498639;0.195673;-0.127335
3.66765;0.0489181;0.195529;-0.132408
3.6926;0.048922;0.195433;-0.136826
3.71755;0.0488742;0.195952;-0.143709
3.7425;0.0488582;0.196966;-0.14587
3.76745;0.0487345;0.19608;-0.15168
3.7924;0.0481001;0.19691;-0.156178
3.81735;0.0482437;0.196199;-0.160324
3.8423;0.0482597;0.195425;-0.167543
3.86725;0.048527;0.196598;-0.171992
3.8922;0.0480562;0.1958;-0.175722
3.91715;0.0474936;0.195242;-0.181468
3.9421;0.048116;0.195297;-0.183757
3.96705;0.0478766;0.196096;-0.190642
3.992;0.0475255;0.195697;-0.195268
4.01695;0.0475215;0.196208;-0.199686
4.0419;0.0475534;0.196048;-0.194804
4.06685;0.0482796;0.195721;-0.191314
4.0918;0.0488063;0.195537;-0.183789
4.11675;0.0488143;0.195649;-0.181612
4.1417;0.049393;0.195417;-0.175722
4.16665;0.0497682;0.195745;-0.172472
4.1916;0.0499716;0.195457;-0.167719
4.21655;0.050255;0.196056;-0.161332
4.2415;0.0500035;0.195481;-0.157683
4.26645;0.0507858;0.195904;-0.15176
4.2914;0.0511369;0.195713;-0.146718
4.31635;0.0514882;0.197006;-0.143773
4.3413;0.0517996;0.195928;-0.138363
4.36625;0.0519472;0.196838;-0.132969
4.3912;0.0521308;0.19588;-0.127335
4.41615;0.0529249;0.196175;-0.120468
4.4411;0.0525977;0.197923;-0.116562
4.46605;0.0536392;0.196287;-0.111824
4.491;0.0535594;0.19596;-0.106622
4.51595;0.0537389;0.195377;-0.103773
4.5409;0.0542577;0.195984;-0.0961534
4.56585;0.0546088;0.195505;-0.0925988
4.5908;0.0548163;0.195465;-0.0878609
4.61575;0.0551914;0.195776;-0.0848677
4.6407;0.0558498;0.196391;-0.0792975
4.66565;0.0560653;0.196391;-0.072639
4.6906;0.0558857;0.195649;-0.067757
4.71555;0.0567836;0.195721;-0.0638674
4.7405;0.057019;0.195377;-0.0574167
4.76545;0.0571946;0.19663;-0.0539272
4.7904;0.0580645;0.196048;-0.0479246
4.81535;0.0584716;0.195864;-0.0415695
4.8403;0.0581363;0.196159;-0.0379361
4.86525;0.0588227;0.195305;-0.0323018
4.8902;0.0594094;0.195393;-0.0281241
4.91515;0.059553;0.195761;-0.0238663
4.9401;0.0598842;0.195745;-0.0179436
4.96505;0.0604668;0.196056;-0.011957
4.99;0.060778;0.195928;-0.00798742
5.01495;0.0609775;0.196271;-0.00156867
5.0399;0.0618075;0.19659;0
5.06485;0.0623701;0.195505;0.0067869
5.0898;0.0618793;0.196247;0.00979617
5.11475;0.062825;0.195713;0.0159748
5.1397;0.0633916;0.196247;0.0229379
5.16465;0.0633837;0.196056;0.0262673
5.1896;0.0639503;0.196191;0.0319497
5.21455;0.0646965;0.196782;0.0369917
5.2395;0.0647324;0.196319;0.0406093
5.26445;0.0649838;0.196072;0.0474924
5.2894;0.0662247;0.195537;0.0509499
5.31435;0.0664522;0.196239;0.055816
5.3393;0.0658337;0.196175;0.0616424
5.36425;0.067717;0.196263;0.0658201
5.3892;0.0675096;0.195848;0.0718866
5.41415;0.0681041;0.196271;0.0767045
5.4391;0.0669031;0.196064;0.0798737
5.46405;0.0706339;0.195513;0.0837312
5.489;0.0680124;0.196176;0.0885015
5.51395;0.0698797;0.195465;0.0958493
5.5389;0.0703785;0.195489;0.0982183
5.56385;0.0728327;0.196048;0.104045
5.5888;0.0699356;0.195377;0.108319
5.61375;0.0713842;0.195409;0.11192
5.6387;0.0734153;0.195641;0.118643
5.66365;0.0737224;0.196423;0.123429
5.6886;0.0732236;0.196199;0.128567
5.71355;0.0734949;0.195481;0.135786
5.7385;0.076815;0.195385;0.138523
5.76345;0.0740017;0.195936;0.144654
5.7884;0.0776449;0.196662;0.149584
5.81335;0.0762484;0.196136;0.153137
5.8383;0.0783871;0.196191;0.159731
5.86325;0.0770664;0.195497;0.164005
5.8882;0.0798395;0.196925;0.167735
5.91315;0.0798874;0.19596;0.170376
5.9381;0.0798316;0.197085;0.177995
5.96305;0.0827564;0.197053;0.183437
5.988;0.0800311;0.196351;0.19013
6.01295;0.0843249;0.195673;0.191699
6.0379;0.0836822;0.19529;0.197749
6.06285;0.0834991;0.196128;0.202663
6.0878;0.0852588;0.196135;0.207625
6.11275;0.0856938;0.197085;0.214844
6.1377;0.0871423;0.196622;0.217421
6.16265;0.087258;0.197309;0.223744
6.1876;0.0884351;0.197317;0.22781
6.21255;0.0895324;0.195401;0.23178
6.2375;0.0903265;0.195736;0.238118
6.26245;0.0908292;0.196096;0.242536
6.2874;0.0914078;0.196391;0.24761
6.31235;0.0930478;0.197245;0.252748
6.3373;0.0931955;0.19675;0.255998
6.36225;0.0948395;0.196495;0.262352
6.3872;0.0953143;0.196152;0.264993
6.41215;0.0960684;0.19604;0.271556
6.4371;0.0971618;0.195753;0.275958
6.46205;0.0981115;0.195808;0.280136
6.487;0.0988459;0.196064;0.286458
6.51195;0.10079;0.196439;0.288363
6.5369;0.100406;0.196702;0.295711
6.56185;0.102418;0.196175;0.3008
6.5868;0.103061;0.196495;0.304674
6.61175;0.10346;0.196678;0.311477
6.6367;0.105343;0.195537;0.315541
6.66165;0.106357;0.195976;0.319527
6.6866;0.107242;0.196024;0.32702
6.71155;0.108192;0.196822;0.328779
6.7365;0.108655;0.196112;0.335469
6.76145;0.109673;0.19592;0.338688
6.7864;0.110997;0.195737;0.343458
6.81135;0.111432;0.196423;0.350339
6.8363;0.113036;0.195729;0.354198
6.86125;0.113635;0.195569;0.359433
6.8862;0.114369;0.195465;0.364329
6.91115;0.115503;0.196519;0.367418
6.9361;0.116213;0.195784;0.373198
6.96105;0.117219;0.195569;0.378163
6.986;0.118643;0.195657;0.383637
7.01095;0.118651;0.196551;0.390565
7.0359;0.120231;0.196734;0.393577
7.06085;0.121089;0.196247;0.399228
7.0858;0.122302;0.196279;0.404955
7.11075;0.122175;0.196471;0.407853
7.1357;0.123974;0.195721;0.415058
7.16065;0.12419;0.196383;0.418802
7.1856;0.125151;0.195505;0.423203
7.21055;0.125818;0.195952;0.427255
7.2355;0.126727;0.196048;0.431625
7.26045;0.127318;0.195617;0.438473
7.2854;0.128351;0.195385;0.44291
7.31035;0.128958;0.196295;0.447296
7.3353;0.129772;0.197078;0.451983
7.36025;0.130035;0.196223;0.45669
7.3852;0.130881;0.197013;0.463335
7.41015;0.131512;0.197141;0.469286
7.4351;0.132445;0.196335;0.473738
7.46005;0.133271;0.196702;0.478925
7.485;0.133874;0.19762;0.4839
7.50995;0.134117;0.196375;0.487229
7.5349;0.1348;0.195864;0.493924
7.55985;0.135266;0.196982;0.500483
7.5848;0.135965;0.197229;0.503204
7.60975;0.136488;0.196782;0.51009
7.6347;0.136927;0.19695;0.512234
7.65965;0.137513;0.196702;0.519179
7.6846;0.137904;0.195641;0.5244
7.70955;0.138734;0.195848;0.527521
7.7345;0.139293;0.196375;0.534945
7.75945;0.139716;0.197724;0.539477
7.7844;0.139979;0.197468;0.543608
7.80935;0.140865;0.197133;0.55028
7.8343;0.141045;0.196016;0.556094
7.85925;0.141455;0.196822;0.559136
7.8842;0.141839;0.197684;0.565775
7.90915;0.142469;0.197085;0.570178
7.9341;0.142473;0.198546;0.575141
7.95905;0.143435;0.196359;0.582135
7.984;0.143614;0.19754;0.584007
8.00895;0.14355;0.196806;0.591069
8.0339;0.143435;0.197094;0.5935
8.05885;0.144269;0.196351;0.599116
8.0838;0.144153;0.197668;0.605585
8.10875;0.144891;0.1975;0.609653
8.1337;0.14456;0.197149;0.615029
8.15865;0.14446;0.196822;0.619785
8.1836;0.144125;0.196271;0.623018
8.20855;0.143925;0.198546;0.628712
8.2335;0.143379;0.197293;0.633097
8.25845;0.142972;0.197676;0.638942
8.2834;0.142437;0.196271;0.645874
8.30835;0.141691;0.195784;0.64826
8.3333;0.14132;0.195761;0.654824
8.35825;0.14057;0.19608;0.65831
8.3832;0.139345;0.195681;0.662966
8.40815;0.13879;0.196135;0.669722
8.4331;0.137621;0.197963;0.673214
8.45805;0.136643;0.197947;0.678928
8.483;0.135805;0.197461;0.682433
8.50795;0.134432;0.196519;0.687013
8.5329;0.133363;0.196934;0.694195
8.55785;0.131843;0.197732;0.697683
8.5828;0.130478;0.198514;0.702887
8.60775;0.128994;0.198945;0.707693
8.6327;0.127677;0.198666;0.711981
8.65765;0.126181;0.198857;0.718546
8.6826;0.124577;0.198578;0.724527
8.70755;0.122701;0.196966;0.7276
8.7325;0.121177;0.197557;0.734099
8.75745;0.119337;0.198833;0.737307
8.7824;0.117502;0.197564;0.742832
8.80735;0.115882;0.196311;0.74787
8.8323;0.113998;0.195912;0.751614
8.85725;0.11233;0.197173;0.758258
8.8822;0.110798;0.198482;0.762058
8.90715;0.108863;0.198307;0.766762
8.9321;0.107398;0.198442;0.771692
8.95705;0.105926;0.196702;0.774781
8.982;0.104158;0.195928;0.781595
9.00695;0.102498;0.197884;0.786796
9.0319;0.103524;0.198227;0.785774
9.05685;0.106835;0.198418;0.780861
9.0818;0.109361;0.197876;0.774781
9.10675;0.112625;0.197588;0.769724
9.1317;0.115666;0.196447;0.766586
9.15665;0.118787;0.197349;0.760515
9.1816;0.121975;0.197077;0.75797
9.20655;0.125251;0.197037;0.751439
9.2315;0.127434;0.198219;0.746337
9.25645;0.13063;0.196814;0.74256
9.2814;0.133726;0.197756;0.735572
9.30635;0.135721;0.1979;0.733204
9.3313;0.137689;0.198706;0.727104
9.35625;0.139293;0.19663;0.72261
9.3812;0.140554;0.197915;0.718466
9.40615;0.142329;0.197804;0.710958
9.4311;0.143219;0.196918;0.705992
9.45605;0.143542;0.195968;0.702887
9.481;0.143981;0.19584;0.697332
9.50595;0.143862;0.197333;0.69274
9.5309;0.144205;0.197772;0.686917
9.55585;0.14377;0.197046;0.680593
9.5808;0.142673;0.195633;0.678928
9.60575;0.141911;0.195721;0.672123
9.6307;0.141416;0.196407;0.668891
9.65565;0.140434;0.196559;0.662998
9.6806;0.138746;0.197341;0.658633
9.70555;0.138156;0.196088;0.654824
9.7305;0.136843;0.197125;0.647539
9.75545;0.135462;0.19778;0.644702
9.7804;0.13476;0.196543;0.638734
9.80535;0.133331;0.195952;0.631241
9.8303;0.131827;0.196998;0.626427
9.85525;0.13051;0.197109;0.623018
9.8802;0.129062;0.196846;0.61892
9.90515;0.127976;0.195713;0.614965
9.9301;0.126516;0.196487;0.609202
9.95505;0.124792;0.195569;0.604737
9.98;0.12302;0.195904;0.599084
10.0049;0.121484;0.196479;0.592413
10.0299;0.1199;0.196582;0.590941
10.0548;0.118575;0.196646;0.58308
10.0798;0.116796;0.195872;0.579846
10.1047;0.115698;0.195736;0.575061
10.1297;0.114094;0.197109;0.568112
10.1546;0.11322;0.197596;0.565936
10.1796;0.111783;0.197117;0.559168
10.2045;0.110279;0.196295;0.553066
10.2295;0.109086;0.198035;0.549831
10.2544;0.10741;0.197397;0.543175
10.2794;0.106452;0.196934;0.537698
10.3043;0.105124;0.19754;0.534817
10.3293;0.103986;0.197141;0.52725
10.3542;0.102869;0.197452;0.521932
10.3792;0.101225;0.196136;0.518891
10.4042;0.100103;0.197349;0.511547
10.4291;0.0990811;0.197221;0.50932
10.4541;0.0975129;0.19592;0.503204
10.479;0.0966949;0.196718;0.498982
10.504;0.0954819;0.196223;0.494724
10.5289;0.0944524;0.197229;0.487229
10.5539;0.093834;0.195888;0.482639
10.5788;0.0928523;0.195864;0.479246
10.6037;0.0915635;0.195713;0.472023
10.6287;0.0907295;0.195385;0.467656
10.6536;0.0897279;0.197221;0.463111
10.6786;0.0890735;0.197101;0.456
10.7035;0.0882436;0.195585;0.451137
10.7285;0.0874256;0.196048;0.447296
10.7534;0.0865118;0.195896;0.442875
10.7784;0.0862244;0.197437;0.438266
10.8033;0.0846841;0.196439;0.431577
10.8283;0.0844166;0.196982;0.427157
10.8532;0.082916;0.19659;0.423331
10.8782;0.0823455;0.196487;0.41794
10.9031;0.0818785;0.197165;0.41376
10.9281;0.0810127;0.197868;0.407773
10.953;0.0802466;0.196614;0.40403
10.978;0.0797278;0.196878;0.399372
11.0029;0.0787263;0.197205;0.393127
11.0279;0.0781876;0.198107;0.389863
11.0528;0.0775252;0.197724;0.383541
11.0778;0.0771222;0.198522;0.37792
11.1027;0.0762603;0.197652;0.373773
11.1277;0.0754503;0.198387;0.367418
11.1526;0.0749954;0.19707;0.363643
11.1776;0.0745205;0.19782;0.359385
11.2025;0.0741693;0.197756;0.354117
11.2275;0.0732835;0.197397;0.349956
11.2524;0.0731199;0.198179;0.343298
11.2774;0.0731438;0.197078;0.336958
11.3024;0.0719667;0.197931;0.335309
11.3273;0.0717113;0.197126;0.329004
11.3523;0.0713123;0.198163;0.32505
11.3772;0.0706259;0.196718;0.319495
11.4022;0.070175;0.198083;0.31351
11.4271;0.070199;0.196862;0.311269
11.452;0.0692573;0.196263;0.303873
11.477;0.0695206;0.195976;0.300897
11.5019;0.0687226;0.198235;0.294894
11.5269;0.0684832;0.197556;0.288027
11.5518;0.0676612;0.197062;0.284682
11.5768;0.0676452;0.196862;0.279656
11.6017;0.066907;0.196391;0.275045
11.6267;0.0666517;0.198091;0.271315
11.6516;0.0665439;0.198083;0.263969
11.6766;0.0661329;0.197253;0.260303
11.7015;0.0660292;0.198235;0.255597
11.7265;0.0654666;0.198019;0.251388
11.7514;0.0654746;0.196926;0.247434
11.7764;0.0647843;0.196838;0.241544
11.8013;0.0648242;0.196551;0.236662
11.8263;0.0645049;0.19667;0.231475
11.8512;0.0637388;0.196854;0.225905
11.8762;0.0639662;0.195928;0.222399
11.9011;0.0634316;0.19687;0.216141
11.9261;0.0634276;0.196647;0.213164
11.951;0.0629288;0.196383;0.207593
11.976;0.0627931;0.196774;0.200022
12.0009;0.0626096;0.196495;0.196869
12.0259;0.062035;0.195976;0.191699
12.0508;0.0625736;0.196215;0.185742
12.0758;0.0619871;0.197069;0.182092
12.1007;0.0619791;0.197437;0.17585
12.1257;0.0615362;0.196607;0.170072
12.1507;0.0609456;0.196942;0.167735
12.1756;0.0608578;0.19782;0.162821
12.2006;0.0610853;0.197245;0.158947
12.2255;0.0604588;0.197189;0.152016
12.2505;0.0601555;0.196806;0.148639
12.2754;0.0602793;0.196455;0.143773
12.3003;0.0598163;0.195768;0.138507
12.3253;0.0596168;0.197931;0.134569
12.3502;0.0594173;0.196072;0.127815
12.3752;0.059122;0.195808;0.122565
12.4001;0.059098;0.196096;0.118115
12.4251;0.0591101;0.19762;0.111824
12.45;0.0584396;0.197061;0.110095
12.475;0.058264;0.19667;0.103821
12.4999;0.0580405;0.197125;0.0989226
12.5249;0.0580206;0.196998;0.0954489
12.5498;0.0576534;0.196934;0.0885011
12.5748;0.057434;0.197053;0.0828189
12.5997;0.0573941;0.197484;0.0798737
12.6247;0.0570509;0.197317;0.0758082
12.6496;0.0570709;0.196694;0.0717586
12.6746;0.0565362;0.198003;0.065244
12.6995;0.0564963;0.197748;0.0612263
12.7245;0.0565202;0.198578;0.055912
12.7494;0.0563007;0.196926;0.0495734
12.7744;0.0559895;0.197229;0.0477165
12.7993;0.0558259;0.19762;0.040145
12.8243;0.0554588;0.197461;0.0366716
12.8492;0.0551356;0.197844;0.0319497
12.8742;0.0551675;0.196958;0.0261233
12.8991;0.0548243;0.196535;0.0226657
12.9241;0.0548682;0.197197;0.0159748
12.949;0.054525;0.197995;0.0104044
12.974;0.0544413;0.196766;0.00691496
12.999;0.0539624;0.197245;9.60408e-05
13.0239;0.0539345;0.197796;-0.00332941
13.0489;0.0537948;0.195537;-0.00798742
13.0738;0.0536951;0.196;-0.0124533
13.0988;0.0531723;0.1958;-0.0181998
13.1237;0.0534157;0.196231;-0.0239623
13.1486;0.0531324;0.19691;-0.0294366
13.1736;0.0524261;0.196495;-0.0323979
13.1985;0.0527174;0.195753;-0.0392486
13.2235;0.0523622;0.196359;-0.0430425
13.2484;0.052071;0.19584;-0.0479727
13.2734;0.052047;0.196527;-0.0549836
13.2983;0.0520789;0.196886;-0.0594814
13.3233;0.0515839;0.196351;-0.0638994
13.3482;0.0513845;0.195768;-0.0687653
13.3732;0.0510453;0.196112;-0.0736313
13.3981;0.0512647;0.195569;-0.0799698
13.4231;0.0510334;0.195896;-0.0850758
13.448;0.0509853;0.196144;-0.0878609
13.473;0.0503587;0.195896;-0.0926639
13.4979;0.0501911;0.197101;-0.0963295
13.5229;0.0498997;0.195784;-0.103661
13.5478;0.0498878;0.19592;-0.107662
13.5728;0.0499276;0.196662;-0.111824
13.5977;0.049325;0.197708;-0.117218
13.6227;0.0495326;0.196255;-0.120212
13.6476;0.0500674;0.195625;-0.127383
13.6726;0.0490976;0.195952;-0.133193
13.6975;0.0489739;0.196287;-0.138331
13.7225;0.0491615;0.195753;-0.143773
13.7474;0.0490657;0.19695;-0.147391
13.7724;0.0487505;0.196598;-0.15168
13.7973;0.0492533;0.196247;-0.157811
13.8223;0.0490258;0.195928;-0.16058
13.8472;0.0480961;0.197213;-0.16695
13.8722;0.0481399;0.196958;-0.173289
13.8972;0.0486627;0.196894;-0.175786
13.9221;0.0476931;0.196072;-0.18182
13.9471;0.0471424;0.19699;-0.183949
13.972;0.048519;0.19754;-0.191186
13.9969;0.0479245;0.196726;-0.195204
14.0219;0.0466955;0.196407;-0.199446
14.0468;0.0487665;0.195617;-0.193075
14.0718;0.0498079;0.195649;-0.18968
