t;vds;corrente;vg
0.00998;-0.000362773;-0.00500822;-0.203417
0.01996;0.00137004;-0.00150114;-0.203693
0.02994;0.00328077;0.0121467;-0.203693
0.03992;0.00505016;0.0271661;-0.203693
0.0499;0.00686897;0.0352464;-0.203693
0.05988;0.00872137;0.050885;-0.203693
0.06986;0.0106459;0.066038;-0.203693
0.07984;0.012611;0.0710755;-0.203693
0.08982;0.014419;0.0859089;-0.203693
0.0998;0.0159926;0.096607;-0.203693
0.10978;0.0181821;0.0810818;-0.203693
0.11976;0.0205743;0.109664;-0.203693
0.12974;0.0218938;0.141657;-0.203693
0.13972;0.0237669;0.130069;-0.203693
0.1497;0.0257598;0.136276;-0.203693
0.15968;0.0276043;0.167173;-0.203693
0.16966;0.0291216;0.173655;-0.203629
0.17964;0.0311411;0.16343;-0.203693
0.18962;0.0329481;0.189322;-0.203693
0.1996;0.0349399;0.199765;-0.203693
0.20958;0.0369267;0.198118;-0.203693
0.21956;0.0387386;0.213753;-0.203693
0.22954;0.0407341;0.225519;-0.203693
0.23952;0.0425106;0.236784;-0.203693
0.2495;0.0442125;0.242715;-0.203693
0.25948;0.0458042;0.242254;-0.203661
0.26946;0.0445764;0.233519;-0.203693
0.27944;0.0427549;0.230949;-0.203693
0.28942;0.040577;0.229666;-0.203693
0.2994;0.0386625;0.215048;-0.203693
0.30938;0.0370976;0.206199;-0.203693
0.31936;0.0352444;0.200433;-0.203693
0.32934;0.0331229;0.189981;-0.203693
0.33932;0.0312488;0.175775;-0.203685
0.3493;0.0292263;0.168091;-0.203693
0.35928;0.0275421;0.155953;-0.203693
0.36926;0.0258854;0.138813;-0.203693
0.37924;0.0240685;0.133703;-0.203693
0.38922;0.0220975;0.13119;-0.203693
0.3992;0.0200118;0.11876;-0.203693
0.40918;0.0182918;0.0975093;-0.203693
0.41916;0.0166598;0.0866817;-0.203717
0.42914;0.0147175;0.0872805;-0.203693
0.43912;0.0125418;0.073483;-0.203613
0.4491;0.0104739;0.0659773;-0.203693
0.45908;0.00867688;0.0540005;-0.203693
0.46906;0.00714772;0.0376336;-0.203693
0.47904;0.00541491;0.0280482;-0.203693
0.48902;0.00322048;0.0193489;-0.203693
0.499;0.00126625;0.005167;-0.203693
0.50898;-0.000547619;-0.00158206;-0.203693
0.51896;-0.00223101;-0.0118837;-0.203685
0.52894;-0.00396777;-0.0224928;-0.203709
0.53892;-0.00611574;-0.0320054;-0.203693
0.5489;-0.00806503;-0.0516254;-0.203693
0.55888;-0.00983735;-0.0605109;-0.203693
0.56886;-0.0115731;-0.0676605;-0.203693
0.57884;-0.0134344;-0.0794673;-0.203693
0.58882;-0.0154786;-0.0828984;-0.203693
0.5988;-0.0175702;-0.104522;-0.203693
0.60878;-0.0192714;-0.118032;-0.203693
0.61876;-0.0211772;-0.118327;-0.203693
0.62874;-0.0229585;-0.132906;-0.203693
0.63872;-0.0248534;-0.145032;-0.203693
0.6487;-0.0267236;-0.150786;-0.203693
0.65868;-0.0285859;-0.163256;-0.203693
0.66866;-0.0305095;-0.173764;-0.203693
0.67864;-0.0323569;-0.179619;-0.203693
0.68862;-0.0343091;-0.192457;-0.203693
0.6986;-0.0360606;-0.203224;-0.203693
0.70858;-0.0379191;-0.212935;-0.203693
0.71856;-0.039805;-0.220732;-0.203685
0.72854;-0.0415183;-0.232527;-0.203693
0.73852;-0.0434911;-0.233049;-0.203693
0.7485;-0.0455356;-0.240992;-0.203693
0.75848;-0.0471289;-0.243346;-0.203693
0.76846;-0.0459413;-0.240858;-0.203693
0.77844;-0.0439528;-0.23803;-0.203693
0.78842;-0.0421249;-0.233227;-0.203693
0.7984;-0.0403695;-0.221327;-0.203693
0.80838;-0.0385279;-0.211564;-0.203693
0.81836;-0.0365974;-0.203528;-0.203693
0.82834;-0.0346797;-0.193174;-0.203693
0.83832;-0.0329697;-0.181262;-0.203693
0.8483;-0.0309462;-0.179287;-0.203717
0.85828;-0.0291216;-0.167326;-0.203693
0.86826;-0.0272069;-0.155152;-0.203693
0.87824;-0.0252823;-0.144672;-0.203693
0.88822;-0.0234695;-0.135616;-0.203693
0.8982;-0.0216289;-0.122062;-0.203693
0.90818;-0.019647;-0.114172;-0.203693
0.91816;-0.0178648;-0.100038;-0.203693
0.92814;-0.0159966;-0.0910475;-0.203693
0.93812;-0.0141313;-0.0831615;-0.203693
0.9481;-0.0121682;-0.0731431;-0.203693
0.95808;-0.0103197;-0.0538872;-0.203693
0.96806;-0.00850984;-0.0513422;-0.203693
0.97804;-0.00666633;-0.0383782;-0.203693
0.98802;-0.00470023;-0.0287118;-0.203693
0.998;-0.00284881;-0.0169495;-0.203693
1.00798;-0.000823406;-0.00587912;-0.203693
1.01796;0.00093807;0.00392481;-0.203693
1.02794;0.00275787;0.0196079;-0.203693
1.03792;0.00485147;0.0238766;-0.203693
1.0479;0.00648049;0.0369054;-0.203693
1.05788;0.00832302;0.04204;-0.203693
1.06786;0.0101517;0.0520705;-0.203717
1.07784;0.0121257;0.0661877;-0.203693
1.08782;0.0140384;0.0796413;-0.203693
1.0978;0.0159195;0.0911931;-0.203693
1.10778;0.0177995;0.104558;-0.203693
1.11776;0.0195669;0.110142;-0.203693
1.12774;0.021446;0.124858;-0.203693
1.13772;0.0233844;0.137073;-0.203693
1.1477;0.0252695;0.140051;-0.203693
1.15768;0.0270696;0.154828;-0.203693
1.16766;0.029009;0.158482;-0.203693
1.17764;0.030898;0.171158;-0.203693
1.18762;0.0327396;0.187028;-0.203693
1.1976;0.0345317;0.196739;-0.203693
1.20758;0.0365084;0.206287;-0.203693
1.21756;0.0383748;0.211819;-0.203693
1.22754;0.0401469;0.226656;-0.203693
1.23752;0.0420836;0.23014;-0.203693
1.2475;0.043918;0.240377;-0.203693
1.25748;0.0456986;0.245653;-0.203693
1.26746;0.044875;0.243164;-0.203693
1.27744;0.0430367;0.236759;-0.203693
1.28742;0.0410971;0.226725;-0.203693
1.2974;0.0391648;0.217953;-0.203693
1.30738;0.037417;0.204717;-0.203693
1.31736;0.0355053;0.197985;-0.203693
1.32734;0.0335698;0.18867;-0.203693
1.33732;0.0317283;0.185251;-0.203693
1.3473;0.0297859;0.174792;-0.203621
1.35728;0.0278376;0.157749;-0.203693
1.36726;0.0261393;0.148896;-0.203693
1.37724;0.0241831;0.135402;-0.203741
1.38722;0.0223446;0.122859;-0.203693
1.3972;0.0206079;0.118788;-0.203693
1.40718;0.0186585;0.104643;-0.203629
1.41716;0.0169138;0.095288;-0.203693
1.42714;0.0150535;0.0901695;-0.203693
1.43712;0.0130143;0.0710634;-0.203693
1.4471;0.0110116;0.0649375;-0.203693
1.45708;0.00920672;0.0460134;-0.203693
1.46706;0.00740176;0.0364846;-0.203693
1.47704;0.00557208;0.032495;-0.203693
1.48702;0.00366826;0.0196078;-0.203693
1.497;0.00180101;0.0115357;-0.203693
1.50698;-7.51244e-05;0.00338262;-0.203693
1.51696;-0.00182474;-0.0121184;-0.203693
1.52694;-0.00372955;-0.024439;-0.203693
1.53692;-0.0057757;-0.0343562;-0.203693
1.5469;-0.00761527;-0.0474255;-0.203645
1.55688;-0.00938957;-0.0600295;-0.203693
1.56686;-0.0111688;-0.0652773;-0.203693
1.57684;-0.0131715;-0.0708651;-0.203693
1.58682;-0.0152829;-0.0815551;-0.203693
1.5968;-0.0172549;-0.0959637;-0.203693
1.60678;-0.018792;-0.114196;-0.203693
1.61676;-0.0205436;-0.124599;-0.203693
1.62674;-0.0225473;-0.131732;-0.203693
1.63672;-0.0244866;-0.143693;-0.203693
1.6467;-0.0262293;-0.150069;-0.203693
1.65668;-0.0282883;-0.152477;-0.203693
1.66666;-0.0300813;-0.168302;-0.203693
1.67664;-0.0319328;-0.177131;-0.203693
1.68662;-0.034241;-0.179311;-0.203693
1.6966;-0.0360527;-0.201938;-0.203693
1.70658;-0.0373073;-0.217653;-0.203725
1.71656;-0.0392367;-0.202909;-0.203701
1.72654;-0.0414204;-0.213967;-0.203693
1.73652;-0.0432045;-0.236739;-0.203693
1.7465;-0.0449305;-0.238018;-0.203717
1.75648;-0.0468512;-0.227999;-0.203693
1.76646;-0.0466109;-0.245046;-0.203693
1.77644;-0.0444351;-0.239438;-0.203693
1.78642;-0.0426916;-0.224868;-0.203669
1.7964;-0.0405483;-0.227583;-0.203693
1.80638;-0.0387792;-0.221574;-0.203693
1.81636;-0.0368327;-0.207659;-0.203693
1.82634;-0.0350486;-0.18742;-0.203653
1.83632;-0.0333207;-0.178272;-0.203653
1.8463;-0.0313813;-0.171336;-0.203693
1.85628;-0.0294528;-0.174565;-0.203693
1.86626;-0.0274184;-0.164595;-0.203693
1.87624;-0.0256907;-0.14769;-0.203693
1.88622;-0.0240863;-0.13299;-0.203773
1.8962;-0.0220412;-0.125266;-0.203693
1.90618;-0.0198912;-0.116514;-0.203693
1.91616;-0.0181752;-0.102345;-0.203693
1.92614;-0.0164097;-0.0954255;-0.203693
1.93612;-0.0146038;-0.0838939;-0.203693
1.9461;-0.0127138;-0.0697444;-0.203693
1.95608;-0.0105787;-0.065164;-0.203637
1.96606;-0.00862747;-0.0584352;-0.203693
1.97604;-0.00686798;-0.0372493;-0.203693
1.98602;-0.00526861;-0.0171316;-0.203693
1.996;-0.00338358;-0.0190373;-0.203693
2.00598;-0.00107646;-0.0172166;-0.203693
2.01596;0.000772994;0.000343927;-0.203693
2.02594;0.00234864;0.0141495;-0.203693
2.03592;0.00406958;0.0189888;-0.203693
2.0459;0.00591014;0.0369822;-0.203693
2.05588;0.00815696;0.0435007;-0.203693
2.06586;0.0101211;0.049133;-0.203693
2.07584;0.0118222;0.0671386;-0.203693
2.08582;0.0135491;0.0745431;-0.203693
2.0958;0.0154035;0.0926013;-0.203637
2.10578;0.0174615;0.103109;-0.203693
2.11576;0.0195669;0.109316;-0.203693
2.12574;0.0213353;0.119666;-0.203693
2.13572;0.0228705;0.12994;-0.203693
2.1457;0.0247595;0.134504;-0.203693
2.15568;0.0267365;0.15507;-0.203693
2.16566;0.028757;0.163746;-0.203693
2.17564;0.030647;0.174889;-0.203693
2.18562;0.0321601;0.186412;-0.203693
2.1956;0.0341915;0.185085;-0.203693
2.20558;0.0360873;0.200902;-0.203693
2.21556;0.0380565;0.213789;-0.203693
2.22554;0.0398959;0.220044;-0.203693
2.23552;0.0419175;0.226587;-0.203693
2.2455;0.0437135;0.23975;-0.203693
2.25548;0.0454911;0.241765;-0.203693
2.26546;0.0452367;0.243282;-0.203693
2.27544;0.0433688;0.240272;-0.203693
2.28542;0.0415991;0.225175;-0.203693
2.2954;0.0395601;0.219122;-0.203693
2.30538;0.0377658;0.209249;-0.203693
2.31536;0.0357761;0.203095;-0.203533
2.32534;0.0339819;0.194481;-0.203685
2.33532;0.0320515;0.190422;-0.203693
2.3453;0.0302;0.173436;-0.203693
2.35528;0.0283625;0.161079;-0.203621
2.36526;0.026594;0.149685;-0.203573
2.37524;0.0247901;0.138388;-0.203685
2.38522;0.0229416;0.129932;-0.203693
2.3952;0.021015;0.119841;-0.203693
2.40518;0.019048;0.109535;-0.203693
2.41516;0.0171946;0.0959352;-0.203693
2.42514;0.0153699;0.0835136;-0.203693
2.43512;0.0134157;0.0750691;-0.203693
2.4451;0.0113863;0.0618178;-0.203693
2.45508;0.00966734;0.0536364;-0.203693
2.46506;0.00786635;0.0481619;-0.203693
2.47504;0.00601887;0.0355377;-0.203693
2.48502;0.00412889;0.0230552;-0.203693
2.495;0.00220926;0.0127779;-0.203693
2.50498;0.000287648;0.00281616;-0.203693
2.51496;-0.00149656;-0.0117097;-0.203693
2.52494;-0.00336183;-0.0202472;-0.203693
2.53492;-0.00516779;-0.0326042;-0.203693
2.5449;-0.00724558;-0.0357238;-0.203693
2.55488;-0.00907031;-0.045803;-0.203693
2.56486;-0.0109425;-0.0627323;-0.203621
2.57484;-0.0128067;-0.079002;-0.203693
2.58482;-0.0146245;-0.0883123;-0.203693
2.5948;-0.0165333;-0.0942724;-0.203693
2.60478;-0.0185024;-0.105598;-0.203693
2.61476;-0.0203073;-0.116947;-0.203693
2.62474;-0.022216;-0.122216;-0.203693
2.63472;-0.0240526;-0.134192;-0.203693
2.6447;-0.025909;-0.140658;-0.203693
2.65468;-0.0278197;-0.155601;-0.203693
2.66466;-0.0297483;-0.173853;-0.203693
2.67464;-0.0315532;-0.180695;-0.203693
2.68462;-0.0333909;-0.188432;-0.203693
2.6946;-0.0353293;-0.195796;-0.203693
2.70458;-0.0371541;-0.206445;-0.203693
2.71456;-0.0390658;-0.219563;-0.203693
2.72454;-0.0409746;-0.222934;-0.203693
2.73452;-0.0427924;-0.231188;-0.203693
2.7445;-0.0447692;-0.237111;-0.203693
2.75448;-0.0465663;-0.246413;-0.203693
2.76446;-0.0466574;-0.245802;-0.203693
2.77444;-0.0447248;-0.238204;-0.203693
2.78442;-0.0428706;-0.229735;-0.203693
2.7944;-0.0410249;-0.222695;-0.203693
2.80438;-0.0392665;-0.220113;-0.203693
2.81436;-0.0372983;-0.209694;-0.203693
2.82434;-0.0354559;-0.198624;-0.203693
2.83432;-0.0334996;-0.191887;-0.203693
2.8443;-0.031671;-0.177329;-0.203693
2.85428;-0.0298769;-0.170507;-0.203693
2.86426;-0.0279998;-0.1555;-0.203693
2.87424;-0.0259556;-0.147363;-0.203693
2.88422;-0.0243077;-0.134245;-0.203645
2.8942;-0.0224326;-0.125343;-0.203693
2.90418;-0.020421;-0.118238;-0.203693
2.91416;-0.0184707;-0.10688;-0.203693
2.92414;-0.0166074;-0.0949157;-0.203685
2.93412;-0.0147659;-0.0816684;-0.203685
2.9441;-0.0130351;-0.0718524;-0.203693
2.95408;-0.0110116;-0.0665761;-0.203693
2.96406;-0.00915826;-0.0538994;-0.203693
2.97404;-0.00731675;-0.043177;-0.203693
2.98402;-0.00553946;-0.0335875;-0.203693
2.994;-0.00343695;-0.019705;-0.203693
3.00398;-0.001545;-0.0147807;-0.203693
3.01396;0.000407255;-0.000420805;-0.203637
3.02394;0.00214501;0.00867504;-0.203693
3.03392;0.00385607;0.0260251;-0.203693
3.0439;0.00574407;0.0335025;-0.203693
3.05388;0.00771214;0.0374961;-0.203693
3.06386;0.00968217;0.0510549;-0.203693
3.07384;0.0114505;0.064375;-0.203693
3.08382;0.0132091;0.0833597;-0.203693
3.0938;0.0151811;0.0880331;-0.203693
3.10378;0.0170266;0.100241;-0.203693
3.11376;0.0189788;0.111339;-0.203693
3.12374;0.0208856;0.118036;-0.203693
3.13372;0.0225581;0.125489;-0.203693
3.1437;0.0244986;0.132266;-0.203693
3.15368;0.026517;0.146638;-0.203693
3.16366;0.0284198;0.161852;-0.203693
3.17364;0.0300398;0.175035;-0.203693
3.18362;0.0317845;0.186198;-0.203693
3.1936;0.0336024;0.19094;-0.203653
3.20358;0.0357987;0.193833;-0.203693
3.21356;0.0377876;0.209783;-0.203693
3.22354;0.0395559;0.218175;-0.203693
3.23352;0.0414175;0.22452;-0.203693
3.2435;0.0433014;0.235546;-0.203693
3.25348;0.0451461;0.240538;-0.203685
3.26346;0.0457269;0.241247;-0.203605
3.27344;0.0436801;0.240478;-0.203637
3.28342;0.0416643;0.230014;-0.203669
3.2934;0.0399662;0.202804;-0.203693
3.30338;0.0386446;0.206344;-0.203677
3.31336;0.0362071;0.214509;-0.203693
3.32334;0.0341845;0.191268;-0.203693
3.33332;0.0325911;0.169386;-0.203709
3.3433;0.0308098;0.18163;-0.203693
3.35328;0.0284603;0.173441;-0.203597
3.36326;0.0267521;0.138417;-0.203693
3.37324;0.0249531;0.140844;-0.203685
3.38322;0.0231659;0.140075;-0.203685
3.3932;0.0215152;0.112675;-0.203685
3.40318;0.0194829;0.105238;-0.203693
3.41316;0.017675;0.10684;-0.203693
3.42314;0.015705;0.101369;-0.203693
3.43312;0.0137458;0.0834123;-0.203693
3.4431;0.0119033;0.0613323;-0.203693
3.45308;0.0100765;0.05273;-0.203693
3.46306;0.00829435;0.0378117;-0.203693
3.47304;0.00623436;0.0358412;-0.203693
3.48302;0.00442642;0.0276395;-0.203677
3.493;0.00267978;0.0122478;-0.203693
3.50298;0.000979586;0.00634848;-0.203669
3.51296;-0.00105867;-0.0081895;-0.203661
3.52294;-0.00299906;-0.0222298;-0.203693
3.53292;-0.00505411;-0.0304881;-0.203693
3.5429;-0.00676616;-0.0410487;-0.203693
3.55288;-0.00851083;-0.0540612;-0.203693
3.56286;-0.0103346;-0.0636427;-0.203693
3.57284;-0.0123807;-0.0670415;-0.203693
3.58282;-0.0146038;-0.0798315;-0.203693
3.5928;-0.0162822;-0.0975175;-0.203693
3.60278;-0.0179102;-0.107269;-0.203693
3.61276;-0.0197508;-0.108313;-0.203693
3.62274;-0.0219066;-0.121685;-0.203693
3.63272;-0.0239053;-0.132752;-0.203693
3.6427;-0.0256925;-0.143907;-0.203677
3.65268;-0.0273008;-0.152121;-0.203693
3.66266;-0.0292165;-0.167974;-0.203693
3.67264;-0.031232;-0.17429;-0.203661
3.68262;-0.0332249;-0.185947;-0.203693
3.6926;-0.035099;-0.191818;-0.203669
3.70258;-0.0366835;-0.199162;-0.203693
3.71256;-0.0386021;-0.212749;-0.203693
3.72254;-0.0406027;-0.219964;-0.203693
3.73252;-0.042478;-0.231726;-0.203693
3.7425;-0.0444785;-0.234684;-0.203693
3.75248;-0.0460623;-0.243217;-0.203685
3.76246;-0.0467831;-0.242582;-0.203693
3.77244;-0.0452002;-0.231847;-0.203693
3.78242;-0.0433055;-0.234753;-0.203693
3.7924;-0.0413135;-0.232377;-0.203693
3.80238;-0.0396155;-0.215217;-0.203693
3.81236;-0.0376027;-0.208832;-0.203693
3.82234;-0.0357702;-0.200093;-0.203693
3.83232;-0.0338456;-0.191466;-0.203693
3.8423;-0.0319893;-0.177187;-0.203693
3.85228;-0.030207;-0.170276;-0.203693
3.86226;-0.0283487;-0.161532;-0.203693
3.87224;-0.026429;-0.148645;-0.203693
3.88222;-0.0245025;-0.141904;-0.203677
3.8922;-0.0226549;-0.131554;-0.203669
3.90218;-0.0207116;-0.116984;-0.203453
3.91216;-0.0188948;-0.110134;-0.203693
3.92214;-0.0170928;-0.0953567;-0.203693
3.93212;-0.0152068;-0.0832141;-0.203557
3.9421;-0.0132674;-0.076813;-0.203693
3.95208;-0.0113952;-0.0691657;-0.203693
3.96206;-0.00947458;-0.0576826;-0.203685
3.97204;-0.00765975;-0.0457585;-0.203693
3.98202;-0.00572233;-0.0332152;-0.203693
3.992;-0.00385805;-0.0230673;-0.203693
4.00198;-0.00190382;-0.012353;-0.203693
4.01196;4.34932e-05;0.00146472;-0.203621
4.02194;0.00176049;0.00780511;-0.203677
4.03192;0.00362576;0.0173501;-0.203693
4.0419;0.00550091;0.0296789;-0.203693
4.05188;0.00721296;0.0406238;-0.203693
4.06186;0.00915038;0.0510185;-0.203693
4.07184;0.0110255;0.0649941;-0.203693
4.08182;0.01296;0.0732159;-0.203693
4.0918;0.0148005;0.0843875;-0.203693
4.10178;0.0166717;0.0917556;-0.203693
4.11176;0.0185775;0.100427;-0.203693
4.12174;0.02051;0.114184;-0.203693
4.13172;0.0224148;0.125804;-0.203693
4.1417;0.0241989;0.139096;-0.203693
4.15168;0.0260464;0.145865;-0.203693
4.16166;0.0278365;0.15923;-0.203693
4.17164;0.0298481;0.167942;-0.203629
4.18162;0.0317321;0.176143;-0.203573
4.1916;0.0335184;0.187197;-0.203693
4.20158;0.0353619;0.197774;-0.203661
4.21156;0.0373103;0.209666;-0.203565
4.22154;0.0391962;0.217111;-0.203669
4.23152;0.0411021;0.224859;-0.203437
4.2415;0.0429761;0.232863;-0.203685
4.25148;0.0446784;0.240223;-0.203597
4.26146;0.0458557;0.241335;-0.203693
4.27144;0.0441939;0.237387;-0.203677
4.28142;0.042304;0.232758;-0.203693
4.2914;0.0403704;0.221817;-0.203693
4.30138;0.038604;0.214505;-0.203693
4.31136;0.0366161;0.209484;-0.203693
4.32134;0.0345996;0.196564;-0.203693
4.33132;0.0328392;0.186234;-0.203693
4.3413;0.0309561;0.175581;-0.203693
4.35128;0.0291225;0.168257;-0.203693
4.36126;0.0272088;0.156717;-0.203645
4.37124;0.0254336;0.145768;-0.203693
4.38122;0.0235099;0.135438;-0.203653
4.3912;0.0216962;0.12519;-0.203693
4.40118;0.0196895;0.109555;-0.203693
4.41116;0.0179063;0.0971249;-0.203693
4.42114;0.0161656;0.0856459;-0.203693
4.43112;0.0141876;0.0760119;-0.203669
4.4411;0.0123125;0.0663779;-0.203693
4.45108;0.0103741;0.0619514;-0.203693
4.46106;0.00854345;0.0511237;-0.203693
4.47104;0.00665051;0.0389487;-0.203693
4.48102;0.00477239;0.0283598;-0.203693
4.491;0.0030208;0.0142507;-0.203693
4.50098;0.00119705;0.00139189;-0.203693
4.51096;-0.000678099;-0.00191385;-0.203693
4.52094;-0.00271042;-0.0107791;-0.203693
4.53092;-0.00453219;-0.022776;-0.203693
4.5409;-0.00642217;-0.0367354;-0.203693
4.55088;-0.00821626;-0.0459001;-0.203653
4.56086;-0.0100598;-0.0575612;-0.203605
4.57084;-0.0120703;-0.0726859;-0.203693
4.58082;-0.0139939;-0.0828499;-0.203693
4.5908;-0.0157732;-0.0938677;-0.203669
4.60078;-0.0176542;-0.0963966;-0.203693
4.61076;-0.0195244;-0.106982;-0.203693
4.62074;-0.0214787;-0.122195;-0.203693
4.63072;-0.0234942;-0.128965;-0.203693
4.6407;-0.0252448;-0.148192;-0.203693
4.65068;-0.0269687;-0.159898;-0.203693
4.66066;-0.0290169;-0.165506;-0.203693
4.67064;-0.030893;-0.171972;-0.203693
4.68062;-0.0328226;-0.183123;-0.203693
4.6906;-0.0347066;-0.189803;-0.203693
4.70058;-0.0364481;-0.204248;-0.203693
4.71056;-0.0383965;-0.212126;-0.203693
4.72054;-0.0403318;-0.219559;-0.203693
4.73052;-0.0421676;-0.233729;-0.203693
4.7405;-0.0439328;-0.239163;-0.203693
4.75048;-0.045749;-0.242683;-0.203693
4.76046;-0.0470528;-0.241922;-0.203693
4.77044;-0.0456805;-0.238722;-0.203693
4.78042;-0.0439133;-0.234813;-0.203693
4.7904;-0.0418225;-0.232531;-0.203693
4.80038;-0.0398575;-0.222727;-0.203693
4.81036;-0.0380445;-0.213311;-0.203693
4.82034;-0.0362515;-0.203593;-0.203693
4.83032;-0.0342893;-0.192178;-0.203725
4.8403;-0.0323984;-0.171757;-0.203693
4.85028;-0.0305183;-0.173153;-0.203693
4.86026;-0.0287469;-0.16292;-0.203693
4.87024;-0.0271031;-0.145149;-0.203693
4.88022;-0.025134;-0.151506;-0.203693
4.8902;-0.0229198;-0.146962;-0.203701
4.90018;-0.020928;-0.107507;-0.203709
4.91016;-0.0194483;-0.0989822;-0.203581
4.92014;-0.0174614;-0.110178;-0.203693
4.93012;-0.0153985;-0.088025;-0.203693
4.9401;-0.0136786;-0.0615184;-0.203693
4.95008;-0.0120239;-0.0750974;-0.203693
4.96006;-0.00995004;-0.0680813;-0.20379
4.97004;-0.00834773;-0.0371238;-0.203789
4.98002;-0.00617308;-0.0374354;-0.203693
4.99;-0.00416448;-0.0321147;-0.203693
4.99998;-0.00230811;-0.0134941;-0.203693
5.00996;-0.000413186;0.00231038;-0.203693
5.01994;0.00125735;0.0128952;-0.203693
5.02992;0.00314733;0.0180379;-0.203693
5.0399;0.00517965;0.0207003;-0.203693
5.04988;0.00695694;0.0296707;-0.203693
5.05986;0.00871544;0.0517063;-0.203693
5.06984;0.01055;0.0638045;-0.203693
5.07982;0.0124786;0.0677334;-0.203693
5.0898;0.0145613;0.0793581;-0.203693
5.09978;0.0164068;0.0949926;-0.203693
5.10976;0.0180427;0.10334;-0.203693
5.11974;0.0198941;0.109996;-0.203693
5.12972;0.0217811;0.124955;-0.203693
5.1397;0.0237541;0.133088;-0.203693
5.14968;0.025737;0.139695;-0.203709
5.15966;0.0275983;0.154553;-0.203693
5.16964;0.0291454;0.171417;-0.203693
5.17962;0.0309098;0.177948;-0.203693
5.1896;0.0332732;0.175621;-0.203693
5.19958;0.0352492;0.196443;-0.203669
5.20956;0.0369196;0.209848;-0.203693
