t;vds;corrente;vg
0.000499;-0.0399942;-0.0288326;0.232426
0.000998;-0.0403931;-0.0290862;0.238232
0.001497;-0.040834;-0.0290407;0.238232
0.001996;-0.0413492;-0.0289537;0.238232
0.002495;-0.0418695;-0.0295995;0.238232
0.002994;-0.0423757;-0.029405;0.238232
0.003493;-0.042953;-0.0299432;0.238232
0.003992;-0.0434484;-0.0303282;0.238232
0.004491;-0.0439042;-0.0300592;0.238232
0.00499;-0.0443997;-0.0305394;0.238232
0.005489;-0.0448951;-0.0307464;0.238232
0.005988;-0.0453721;-0.0308416;0.238232
0.006487;-0.0458436;-0.0311065;0.238232
0.006986;-0.0462716;-0.0311148;0.238232
0.007485;-0.0467387;-0.03133;0.238232
0.007984;-0.0471927;-0.0314294;0.238232
0.008483;-0.0477471;-0.032042;0.238232
0.008982;-0.0482535;-0.0325429;0.238232
0.009481;-0.0487599;-0.0328161;0.238232
0.00998;-0.0489061;-0.0330521;0.238232
0.010479;-0.0485052;-0.0329403;0.238232
0.010978;-0.0480224;-0.03287;0.238232
0.011477;-0.0474454;-0.032514;0.238232
0.011976;-0.0470041;-0.0315784;0.238295
0.012475;-0.0464551;-0.0311231;0.239346
0.012974;-0.0458852;-0.0311396;0.238868
0.013473;-0.0454904;-0.0309782;0.238709
0.013972;-0.0449601;-0.0308002;0.239759
0.014471;-0.04452;-0.03044;0.239664
0.01497;-0.0440583;-0.0307174;0.238677
0.015469;-0.0436703;-0.0296409;0.238614
0.015968;-0.0431483;-0.0293512;0.238868
0.016467;-0.0425554;-0.0291855;0.238391
0.016966;-0.0420915;-0.028933;0.238709
0.017465;-0.0415682;-0.0289868;0.239409
0.017964;-0.0409741;-0.0288295;0.239186
0.018463;-0.0405452;-0.0287095;0.238295
0.018962;-0.0400436;-0.0275587;0.241446
0.019461;-0.0395413;-0.0273062;0.238868
0.01996;-0.0390953;-0.0275422;0.238518
0.020459;-0.0386452;-0.0274387;0.238454
0.020958;-0.03807;-0.026855;0.241001
0.021457;-0.0376131;-0.026855;0.238518
0.021956;-0.0371393;-0.0266438;0.241001
0.022455;-0.0366694;-0.0263871;0.239791
0.022954;-0.0361158;-0.0255053;0.240523
0.023453;-0.0356737;-0.0254224;0.239155
0.023952;-0.0352316;-0.0250416;0.239982
0.024451;-0.0348004;-0.0248842;0.238932
0.02495;-0.0342704;-0.0251616;0.238423
0.025449;-0.0338351;-0.024669;0.239027
0.025948;-0.0332538;-0.0247311;0.238232
0.026447;-0.0327111;-0.0242136;0.239059
0.026946;-0.0321902;-0.0240688;0.240205
0.027445;-0.031657;-0.0238701;0.239696
0.027944;-0.0311737;-0.0232906;0.238741
0.028443;-0.0307333;-0.0227234;0.240937
0.028942;-0.0303041;-0.0229552;0.239155
0.029441;-0.0299154;-0.022831;0.240619
0.02994;-0.0294782;-0.0227358;0.238804
0.030439;-0.0289777;-0.0227234;0.240046
0.030938;-0.0284151;-0.0226779;0.2389
0.031437;-0.0278892;-0.0223259;0.239855
0.031936;-0.0273595;-0.021411;0.239537
0.032435;-0.0268648;-0.0209432;0.238295
0.032934;-0.0263162;-0.0212247;0.238391
0.033433;-0.0258207;-0.020761;0.238295
0.033932;-0.0253935;-0.0206617;0.2389
0.034431;-0.0249078;-0.0208066;0.238295
0.03493;-0.0244834;-0.0206451;0.238645
0.035429;-0.0240118;-0.0206037;0.238263
0.035928;-0.0235212;-0.0198876;0.2396
0.036427;-0.0231107;-0.0198089;0.238232
0.036926;-0.0225749;-0.019308;0.238454
0.037425;-0.0221297;-0.0187119;0.238263
0.037924;-0.0216235;-0.0186456;0.238232
0.038423;-0.02114;-0.0185918;0.238232
0.038922;-0.0206563;-0.0181778;0.238232
0.039421;-0.0201225;-0.0172423;0.238773
0.03992;-0.0196567;-0.0177266;0.238232
0.040419;-0.0191662;-0.0172091;0.238232
0.040918;-0.0186392;-0.0168986;0.238359
0.041417;-0.0181744;-0.0169773;0.238232
0.041916;-0.0177726;-0.0166544;0.2389
0.042415;-0.0173425;-0.0165426;0.23855
0.042914;-0.0169142;-0.0166295;0.238773
0.043413;-0.0163763;-0.0162818;0.238263
0.043912;-0.0159469;-0.0157767;0.238518
0.044411;-0.0153805;-0.0153545;0.238868
0.04491;-0.0149109;-0.0149281;0.239823
0.045409;-0.0143976;-0.0148122;0.23995
0.045908;-0.0139002;-0.0145638;0.239123
0.046407;-0.0135064;-0.0146217;0.238709
0.046906;-0.0130791;-0.0142947;0.238359
0.047405;-0.0125353;-0.0142409;0.238518
0.047904;-0.011965;-0.0136944;0.241255
0.048403;-0.0115051;-0.0131438;0.240555
0.048902;-0.0110402;-0.0128789;0.239473
0.049401;-0.0105734;-0.0131894;0.238709
0.0499;-0.0100366;-0.0127009;0.238868
0.050399;-0.00957672;-0.0124814;0.240841
0.050898;-0.00897662;-0.0123945;0.238804
0.051397;-0.00847929;-0.0123076;0.239441
0.051896;-0.00802232;-0.012113;0.240237
0.052395;-0.00754672;-0.0122662;0.239155
0.052894;-0.00705324;-0.0120261;0.238232
0.053393;-0.00654103;-0.0112147;0.23925
0.053892;-0.00606342;-0.0106475;0.239059
0.054391;-0.00552159;-0.010366;0.241128
0.05489;-0.00501532;-0.0102998;0.23855
0.055389;-0.00455345;-0.010275;0.239377
0.055888;-0.00397909;-0.00947188;0.2403
0.056387;-0.00351429;-0.00926486;0.238964
0.056886;-0.00311559;-0.00867288;0.238232
0.057385;-0.00263299;-0.0083334;0.238232
0.057884;-0.00205468;-0.00856938;0.238295
0.058383;-0.00166389;-0.00846588;0.238232
0.058882;-0.00114379;-0.00827958;0.238232
0.059381;-0.000635548;-0.00798151;0.238454
0.05988;-0.000160861;-0.0081264;0.239537
0.060379;0.000293102;-0.00753026;0.240173
0.060878;0.000746078;-0.00711628;0.240714
0.061377;0.00124939;-0.00648704;0.243993
0.061876;0.00169151;-0.00649117;0.240905
0.062375;0.00207541;-0.00621795;0.241446
0.062874;0.00258564;-0.00606479;0.240428
0.063373;0.00310769;-0.00591575;0.242401
0.063872;0.00368204;-0.00599855;0.241987
0.064371;0.00428205;-0.00601925;0.242242
0.06487;0.00473603;-0.0052203;0.243006
0.065369;0.00527488;-0.00526997;0.24151
0.065868;0.00570122;-0.00504228;0.241064
0.066367;0.00618971;-0.00496776;0.2403
0.066866;0.00663381;-0.0046697;0.240619
0.067365;0.00711051;-0.00443787;0.240969
0.067864;0.0076187;-0.00416877;0.239473
0.068363;0.0081171;-0.00410253;0.240587
0.068862;0.00851973;-0.00413151;0.238359
0.069361;0.00907239;-0.0039949;0.239759
0.06986;0.00962009;-0.0033077;0.240014
0.070359;0.0101224;-0.00293513;0.239027
0.070858;0.0106613;-0.00209887;0.239059
0.071357;0.0111242;-0.00221893;0.238518
0.071856;0.0116719;-0.00206576;0.23855
0.072355;0.0121474;-0.00211129;0.239887
0.072854;0.0125896;-0.00205748;0.238391
0.073353;0.0130633;-0.00206576;0.238677
0.073852;0.01354;-0.00167661;0.238232
0.074351;0.0139733;-0.00119226;0.238359
0.07485;0.0144036;-0.000447099;0.238391
0.075349;0.0149078;-0.000194571;0.238232
0.075848;0.0153943;0.000132474;0.238295
0.076347;0.0158828;0.000691346;0.239091
0.076846;0.0163753;0.00151102;0.243324
0.077345;0.0169438;0.00165178;0.242497
0.077844;0.0174342;0.00162694;0.240364
0.078343;0.0178743;0.00199952;0.240619
0.078842;0.0183491;0.00192914;0.242178
0.079341;0.0188356;0.00225205;0.243483
0.07984;0.0192234;0.00222721;0.24482
0.080339;0.019711;0.00232657;0.242656
0.080838;0.0202449;0.00262878;0.243324
0.081337;0.0206978;0.00255011;0.240905
0.081836;0.02114;0.00269501;0.238614
0.082335;0.0216738;0.00378377;0.243643
0.082834;0.0221308;0.00377549;0.239982
0.083333;0.0226746;0.00398662;0.239377
0.083832;0.0231936;0.00418533;0.238836
0.084331;0.023695;0.00433023;0.241383
0.08483;0.0240591;0.00472766;0.242783
0.085329;0.0245238;0.00481459;0.241733
0.085828;0.0250392;0.00472352;0.241383
0.086327;0.0254664;0.00546038;0.243038
0.086826;0.0259659;0.00544796;0.240651
0.087325;0.0264799;0.00615586;0.241924
0.087824;0.0269262;0.00599441;0.238232
0.088323;0.0274264;0.00618898;0.240237
0.088822;0.0279138;0.00630074;0.239123
0.089321;0.0283531;0.00643323;0.238741
0.08982;0.0287941;0.0064208;0.239346
0.090319;0.0293934;0.00723635;0.23855
0.090818;0.0299459;0.00751371;0.238614
0.091317;0.0303918;0.0082092;0.240173
0.091816;0.0308984;0.00797737;0.241765
0.092315;0.0314597;0.00820506;0.239918
0.092814;0.0320066;0.00827544;0.238805
0.093313;0.032421;0.00826302;0.238232
0.093812;0.0328896;0.00830856;0.238232
0.094311;0.0332856;0.00887156;0.238232
0.09481;0.0337582;0.00963743;0.238232
0.095309;0.0342457;0.00940976;0.238232
0.095808;0.0347352;0.0100555;0.238295
0.096307;0.0353065;0.0100348;0.238677
0.096806;0.0357971;0.0104571;0.238454
0.097305;0.0363615;0.0106972;0.238486
0.097804;0.0368147;0.0108421;0.238232
0.098303;0.037311;0.0110077;0.239505
0.098802;0.0378341;0.01167;0.239155
0.099301;0.0382407;0.0118977;0.238486
0.0998;0.0386068;0.0121668;0.240014
0.100299;0.0391791;0.0123945;0.238232
0.100798;0.0396864;0.0127174;0.238263
0.101297;0.0401573;0.0126677;0.238263
0.101796;0.0405814;0.0131521;0.239887
0.102295;0.0411902;0.0137814;0.244438
0.102794;0.0416968;0.0142367;0.243897
0.103293;0.0421015;0.0136903;0.243674
0.103792;0.04264;0.0143444;0.245998
0.104291;0.0431859;0.0143982;0.240364
0.10479;0.0436034;0.0145597;0.24186
0.105289;0.0440748;0.0146549;0.242592
0.105788;0.0446;0.014539;0.240428
0.106287;0.0450502;0.0153835;0.242369
0.106786;0.0454332;0.0154663;0.240364
0.107285;0.0459953;0.0164391;0.244152
0.107784;0.0464355;0.0163646;0.243547
0.108283;0.0468405;0.0168365;0.240778
0.108782;0.047307;0.0172961;0.241383
0.109281;0.0478359;0.017056;0.242974
0.10978;0.0482929;0.017441;0.24412
0.110279;0.0479582;0.0170974;0.242274
0.110778;0.0475243;0.0167082;0.239664
0.111277;0.0470032;0.0164971;0.241892
0.111776;0.0465213;0.0161824;0.241828
0.112275;0.0461012;0.0161617;0.242465
0.112774;0.0455841;0.0159837;0.239537
0.113273;0.0450431;0.0152386;0.240428
0.113772;0.0445545;0.0149612;0.242847
0.114271;0.0441393;0.0144437;0.239919
0.11477;0.0436161;0.0142202;0.238518
0.115269;0.0431779;0.0141539;0.238327
0.115768;0.0427576;0.0140711;0.239409
0.116267;0.0422236;0.0136986;0.239505
0.116766;0.0417589;0.0128168;0.239059
0.117265;0.0413096;0.0126843;0.238359
0.117764;0.0408312;0.0123572;0.239027
0.118263;0.0402539;0.0123904;0.238804
0.118762;0.039855;0.0123738;0.240046
0.119261;0.0393154;0.0119847;0.240332
0.11976;0.0388238;0.0115997;0.24011
0.120259;0.0383562;0.0117114;0.244343
0.120758;0.0378333;0.0112229;0.242337
0.121257;0.0373277;0.0109332;0.239823
0.121756;0.0368531;0.0108214;0.239632
0.122255;0.0364029;0.010544;0.241064
0.122754;0.0358939;0.0104115;0.238932
0.123253;0.035419;0.0103163;0.240905
0.123752;0.0349908;0.0101425;0.241606
0.124251;0.0345182;0.00926897;0.239536
0.12475;0.0338953;0.00934764;0.240905
0.125249;0.0334642;0.00856936;0.242274
0.125748;0.0329469;0.00826302;0.242433
0.126247;0.0324714;0.00830028;0.241223
0.126746;0.0319069;0.00839136;0.239823
0.127245;0.0313956;0.00837894;0.239218
0.127744;0.0308686;0.00840792;0.239409
0.128243;0.0303929;0.00826302;0.241669
0.128742;0.0299765;0.0081885;0.240109
0.129241;0.0294416;0.00811398;0.240205
0.12974;0.02896;0.0081057;0.239568
0.130239;0.0285287;0.00777037;0.238582
0.130738;0.0280274;0.00692585;0.238423
0.131237;0.0274837;0.00628419;0.238677
0.131736;0.0270248;0.00621795;0.239091
0.132235;0.0265273;0.00619726;0.23855
0.132734;0.0259253;0.00619726;0.239409
0.133233;0.0254823;0.00595301;0.239791
0.133732;0.0250352;0.00598199;0.240905
0.134231;0.024519;0.00526995;0.239537
0.13473;0.0240621;0.00523684;0.239282
0.135229;0.0236506;0.00563426;0.2403
0.135728;0.0231422;0.00451653;0.238868
0.136227;0.0226598;0.00442958;0.23925
0.136726;0.0222481;0.00440061;0.240205
0.137225;0.0217252;0.00422259;0.23995
0.137724;0.021213;0.00394108;0.238614
0.138223;0.0206909;0.00334496;0.238677
0.138722;0.0202331;0.00263292;0.24065
0.139221;0.0197564;0.00241765;0.239537
0.13972;0.0192393;0.00226033;0.238486
0.140219;0.0188208;0.00226447;0.243515
0.140718;0.0182799;0.00213613;0.241637
0.141217;0.0177648;0.00190016;0.240173
0.141716;0.0173395;0.00157312;0.239155
0.142215;0.016932;0.00139097;0.238836
0.142714;0.0164878;0.0011964;0.240141
0.143213;0.0160762;0.0011757;0.240078
0.143712;0.0155433;0.000455378;0.238614
0.144211;0.015049;2.48388e-05;0.24151
0.14471;0.0144963;-0.000107635;0.243197
0.145209;0.0141272;-0.000132474;0.240428
0.145708;0.0135972;-0.00020699;0.241351
0.146207;0.0130672;-0.000256668;0.242592
0.146706;0.0125165;-0.00101425;0.239919
0.147205;0.0121692;-0.000952152;0.24081
0.147704;0.0116413;-0.0011757;0.239282
0.148203;0.01121;-0.0014986;0.239027
0.148702;0.0107284;-0.00206576;0.241001
0.149201;0.0101737;-0.00233899;0.238232
0.1497;0.0097297;-0.00235555;0.238677
0.150199;0.00918685;-0.00279437;0.238677
0.150698;0.00866579;-0.00327458;0.240205
0.151197;0.00809536;-0.00371753;0.241765
0.151696;0.00761777;-0.00406113;0.239887
0.152195;0.00718844;-0.00418533;0.240651
0.152694;0.00666932;-0.00425571;0.23995
0.153193;0.0062065;-0.00436748;0.243038
0.153692;0.00570713;-0.00460759;0.24568
0.154191;0.00517716;-0.00539001;0.241796
0.15469;0.00466399;-0.0061807;0.240905
0.155189;0.00426232;-0.00619726;0.241701
0.155688;0.00375606;-0.00619726;0.243706
0.156187;0.00317185;-0.00635457;0.240714
0.156686;0.00262806;-0.00638769;0.245361
0.157185;0.00224417;-0.00638354;0.244757
0.157684;0.00174185;-0.00635457;0.24482
0.158183;0.00121682;-0.00722392;0.241001
0.158682;0.000786541;-0.00800221;0.245298
0.159181;0.00028126;-0.00804361;0.243229
0.15968;-0.000239811;-0.00816366;0.242369
0.160179;-0.000652325;-0.00823404;0.241574
0.160678;-0.00114971;-0.00832926;0.24186
0.161177;-0.00157703;-0.00850728;0.24011
0.161676;-0.00205961;-0.00832098;0.239982
0.162175;-0.00248102;-0.00889644;0.239409
0.162674;-0.00298828;-0.00951322;0.240078
0.163173;-0.0034827;-0.00984029;0.239346
0.163672;-0.00399191;-0.0100183;0.239059
0.164171;-0.00455345;-0.0102708;0.238232
0.16467;-0.00508836;-0.0102832;0.238359
0.165169;-0.00559266;-0.0104944;0.239473
0.165668;-0.0061058;-0.0110739;0.238232
0.166167;-0.00661507;-0.0110905;0.239282
0.166666;-0.00708682;-0.0110988;0.240555
0.167165;-0.00752397;-0.0119391;0.240237
0.167664;-0.00803616;-0.012349;0.239823
0.168163;-0.00849901;-0.0123862;0.238741
0.168662;-0.00895592;-0.0124069;0.239441
0.169161;-0.00943949;-0.0126553;0.242656
0.16966;-0.00995958;-0.0125353;0.243388
0.170159;-0.010457;-0.0130238;0.239505
0.170658;-0.0109613;-0.0135164;0.238709
0.171157;-0.0115564;-0.0129244;0.242497
0.171656;-0.0120053;-0.014216;0.239791
0.172155;-0.0125462;-0.0143485;0.240651
0.172654;-0.0130771;-0.0144562;0.242083
0.173153;-0.0135578;-0.0146093;0.244406
0.173652;-0.0140315;-0.0147128;0.243483
0.174151;-0.0143759;-0.0152758;0.244215
0.17465;-0.0149098;-0.0158388;0.241828
0.175149;-0.0153045;-0.0163108;0.241574
0.175648;-0.0157871;-0.0162321;0.240778
0.176147;-0.0163112;-0.0164598;0.240046
0.176646;-0.0167918;-0.0164143;0.241001
0.177145;-0.017301;-0.0166461;0.23995
0.177644;-0.0177558;-0.016526;0.240651
0.178143;-0.018199;-0.0166751;0.24342
0.178642;-0.0186886;-0.0166171;0.246762
0.179141;-0.0192155;-0.0170766;0.242497
0.17964;-0.0196735;-0.017234;0.247335
0.180139;-0.0201127;-0.0177183;0.243038
0.180638;-0.0205941;-0.0183765;0.240364
0.181137;-0.0211212;-0.01848;0.240173
0.181636;-0.0215485;-0.018509;0.240523
0.182135;-0.0219856;-0.0185918;0.24221
0.182634;-0.0225128;-0.018687;0.24221
0.183133;-0.023007;-0.0188526;0.2389
0.183632;-0.0234187;-0.0189478;0.239218
0.184131;-0.0239219;-0.0197468;0.239441
0.18463;-0.0244024;-0.0200241;0.238614
0.185129;-0.0248833;-0.0207403;0.239027
0.185628;-0.0253648;-0.020732;0.239919
0.186127;-0.0258642;-0.0208397;0.242083
0.186626;-0.0262934;-0.0211916;0.239727
0.187125;-0.0268265;-0.0221397;0.239091
0.187624;-0.0273189;-0.0215932;0.240714
0.188123;-0.0278122;-0.0225288;0.238582
0.188622;-0.0282584;-0.0227772;0.238263
0.189121;-0.0287823;-0.0227607;0.238836
0.18962;-0.0293352;-0.0228683;0.239218
0.190119;-0.0297259;-0.0231415;0.244852
0.190618;-0.0301817;-0.023394;0.242974
0.191117;-0.0306782;-0.0235099;0.242879
0.191616;-0.0311016;-0.023365;0.247876
0.192115;-0.031753;-0.0237169;0.248321
0.192614;-0.0322818;-0.0246152;0.248099
0.193113;-0.032785;-0.02476;0.240873
0.193612;-0.0331908;-0.0249049;0.242942
0.194111;-0.0337167;-0.0248387;0.240173
0.19461;-0.0341243;-0.0250747;0.243643
0.195109;-0.0345942;-0.0250954;0.241605
0.195608;-0.0351042;-0.0257661;0.239664
0.196107;-0.0355611;-0.0260145;0.238645
0.196606;-0.0360971;-0.0265321;0.238454
0.197105;-0.0365926;-0.0267515;0.238805
0.197604;-0.0371019;-0.0269254;0.238232
0.198103;-0.0375982;-0.0273062;0.238836
0.198602;-0.0380552;-0.0275256;0.239377
0.199101;-0.038591;-0.0277492;0.242147
0.1996;-0.039029;-0.0278568;0.242083
0.200099;-0.0395276;-0.028577;0.239091
0.200598;-0.0399686;-0.0288585;0.2403
0.201097;-0.0404631;-0.0287054;0.240937
0.201596;-0.0409228;-0.0286681;0.240969
0.202095;-0.041438;-0.0288585;0.241478
0.202594;-0.0419663;-0.028962;0.24482
0.203093;-0.0424811;-0.0293512;0.243547
0.203592;-0.0429826;-0.0291441;0.245011
0.204091;-0.0435698;-0.0296699;0.244725
0.20459;-0.0440155;-0.0302993;0.240842
0.205089;-0.0445526;-0.0303075;0.239314
0.205588;-0.0450325;-0.030734;0.238836
0.206087;-0.0455339;-0.0308623;0.238805
0.206586;-0.0458811;-0.0309823;0.239155
0.207085;-0.0464365;-0.031032;0.238232
0.207584;-0.0468651;-0.0310113;0.238995
0.208083;-0.047387;-0.0311479;0.238327
0.208582;-0.0479011;-0.0312307;0.238773
0.209081;-0.0483947;-0.0321828;0.23855
0.20958;-0.0488102;-0.0321538;0.240173
0.210079;-0.0488735;-0.0319593;0.238391
0.210578;-0.0484103;-0.0315329;0.238709
0.211077;-0.0479267;-0.0312597;0.241733
0.211576;-0.047399;-0.0309865;0.240364
0.212075;-0.0468492;-0.0309865;0.238709
0.212574;-0.0464177;-0.0309948;0.240205
0.213073;-0.0459089;-0.0309865;0.240332
0.213572;-0.0453996;-0.0309534;0.240428
0.214071;-0.044893;-0.0310031;0.239155
0.21457;-0.0444174;-0.0307298;0.240778
0.215069;-0.0439517;-0.0300466;0.238964
0.215568;-0.0434681;-0.0295622;0.240396
0.216067;-0.0430714;-0.0292187;0.241096
0.216566;-0.0424428;-0.0288916;0.240523
0.217065;-0.0419899;-0.0287384;0.238773
0.217564;-0.0415198;-0.0287757;0.240078
0.218063;-0.0409376;-0.0287964;0.239091
0.218562;-0.0404524;-0.0287178;0.241192
0.219061;-0.0399893;-0.0284942;0.241223
0.21956;-0.0394614;-0.0270827;0.242592
0.220059;-0.038968;-0.0271406;0.242624
0.220558;-0.0384677;-0.026855;0.243165
0.221057;-0.0380443;-0.0269626;0.240428
0.221556;-0.03746;-0.0268012;0.239982
0.222055;-0.0369775;-0.0263002;0.241383
0.222554;-0.0366151;-0.0263416;0.242719
0.223053;-0.0360419;-0.0257454;0.241351
0.223552;-0.0355897;-0.0256419;0.241223
0.224051;-0.0351871;-0.0252858;0.240491
0.22455;-0.034682;-0.0251989;0.240587
0.225049;-0.0342013;-0.0249215;0.238614
0.225548;-0.0337286;-0.0248884;0.24011
0.226047;-0.0332291;-0.024789;0.241796
0.226546;-0.0327447;-0.0247228;0.241892
0.227045;-0.0321566;-0.0243544;0.239632
0.227544;-0.0316906;-0.023837;0.240682
0.228043;-0.0311835;-0.0232367;0.240523
0.228542;-0.0306464;-0.0232119;0.239059
0.229041;-0.0302341;-0.0227483;0.24377
0.22954;-0.0298049;-0.0227814;0.241414
0.230039;-0.0292915;-0.0227234;0.241287
0.230538;-0.0288347;-0.0227234;0.24116
0.231037;-0.0283568;-0.0223218;0.2389
0.231536;-0.0277403;-0.0225413;0.238486
0.232035;-0.0272539;-0.0224088;0.238741
0.232534;-0.0267553;-0.0220403;0.240905
0.233033;-0.0262708;-0.0210798;0.239218
0.233532;-0.0258058;-0.0212495;0.238741
0.234031;-0.0253481;-0.0206699;0.238359
0.23453;-0.0248406;-0.0206368;0.241128
0.235029;-0.0243493;-0.0202022;0.239346
0.235528;-0.0239497;-0.0200325;0.240428
0.236027;-0.0234423;-0.0192873;0.240332
0.236526;-0.0230317;-0.0193784;0.238868
0.237025;-0.0225956;-0.0189561;0.239887
0.237524;-0.0220785;-0.0186456;0.240969
0.238023;-0.0215436;-0.0185504;0.244184
0.238522;-0.0211014;-0.0185918;0.24186
0.239021;-0.0205015;-0.0182772;0.244438
0.23952;-0.0200317;-0.0180288;0.244279
0.240019;-0.0194801;-0.0178715;0.241414
0.240518;-0.0190893;-0.0170353;0.240078
0.241017;-0.0185957;-0.0172754;0.241287
0.241516;-0.0181132;-0.0165799;0.241542
0.242015;-0.0176621;-0.0168738;0.239632
0.242514;-0.017227;-0.0165136;0.239696
0.243013;-0.0167563;-0.016435;0.242911
0.243512;-0.016326;-0.0163687;0.239568
0.244011;-0.0159341;-0.0162445;0.240269
0.24451;-0.0154278;-0.0160168;0.238359
0.245009;-0.0149217;-0.0149198;0.238741
0.245508;-0.0143552;-0.0147708;0.238486
0.246007;-0.0138469;-0.0144769;0.238454
0.246506;-0.0133465;-0.0144065;0.239059
0.247005;-0.0128837;-0.0145182;0.238232
0.247504;-0.0124593;-0.0141167;0.238582
0.248003;-0.0119255;-0.0143816;0.238232
0.248502;-0.0114409;-0.0140132;0.238232
0.249001;-0.0109534;-0.0131397;0.238836
0.2495;-0.0104313;-0.0133839;0.238709
0.249999;-0.00997637;-0.0135164;0.238263
0.250498;-0.00942669;-0.0130527;0.238232
0.250997;-0.00898846;-0.0125311;0.238232
0.251496;-0.00844871;-0.0124193;0.238518
0.251995;-0.00794633;-0.01244;0.239441
0.252494;-0.00744309;-0.0124069;0.240746
0.252993;-0.00699304;-0.0123159;0.239186
