t;vds;corrente;vg
0.02495;0.184403;0.190158;0.344046
0.0499;0.180864;0.191449;0.348944
0.07485;0.178429;0.191449;0.342761
0.0998;0.175385;0.191449;0.335318
0.12475;0.172471;0.191449;0.329725
0.1497;0.169483;0.191449;0.326609
0.17465;0.1667;0.191473;0.319246
0.1996;0.163693;0.191449;0.313589
0.22455;0.160985;0.191449;0.308398
0.2495;0.158104;0.191449;0.302022
0.27445;0.155095;0.191481;0.295232
0.2994;0.152484;0.191593;0.290073
0.32435;0.149377;0.191449;0.285374
0.3493;0.146508;0.191449;0.279029
0.37425;0.143444;0.191449;0.272592
0.3992;0.140656;0.191449;0.267463
0.42415;0.137229;0.191449;0.263085
0.4491;0.13458;0.191449;0.256072
0.47405;0.131996;0.191449;0.253052
0.499;0.128895;0.191449;0.247141
0.52395;0.126044;0.191449;0.240623
0.5489;0.122797;0.191449;0.235335
0.57385;0.120016;0.191449;0.230717
0.5988;0.116824;0.191449;0.2234
0.62375;0.114275;0.191449;0.217776
0.6487;0.111196;0.191449;0.211322
0.67365;0.108389;0.191449;0.205826
0.6986;0.105036;0.191449;0.198637
0.72355;0.102616;0.191449;0.192486
0.7485;0.09928;0.191449;0.187789
0.77345;0.0967442;0.191449;0.183268
0.7984;0.09382;0.191449;0.176254
0.82335;0.0910998;0.191449;0.172164
0.8483;0.0885322;0.191473;0.167004
0.87325;0.0853761;0.191449;0.16031
0.8982;0.0822845;0.191449;0.154031
0.92315;0.0792837;0.191449;0.150181
0.9481;0.0768121;0.191449;0.143742
0.97305;0.0739438;0.191449;0.137238
0.998;0.0710479;0.191449;0.13227
1.02295;0.0686004;0.191449;0.125288
1.0479;0.0655198;0.191449;0.119585
1.07285;0.0627962;0.191449;0.113449
1.0978;0.059976;0.191449;0.109759
1.12275;0.0570478;0.191449;0.10364
1.1477;0.0543443;0.191449;0.0974891
1.17265;0.0512798;0.191449;0.0946933
1.1976;0.0487722;0.191449;0.0876957
1.22255;0.04552;0.191449;0.0806661
1.2475;0.0427959;0.191449;0.0752023
1.27245;0.03992;0.191449;0.0704572
1.2974;0.036784;0.191449;0.0637783
1.32235;0.033648;0.191449;0.0563492
1.3473;0.0308679;0.191449;0.0500387
1.37225;0.0279039;0.191449;0.0446547
1.3972;0.0251201;0.191449;0.0398777
1.42215;0.022384;0.191449;0.0332312
1.4471;0.019088;0.191449;0.0281827
1.47205;0.0163599;0.191449;0.0233578
1.497;0.013232;0.191449;0.0164718
1.52195;0.010144;0.191449;0.0100812
1.5469;0.00720001;0.191449;0.00634269
1.57185;0.00463597;0.191449;0
1.5968;0.00173999;0.191449;-0.00373853
1.62175;-0.001148;0.191449;-0.00896285
1.6467;-0.00397599;0.191449;-0.0159446
1.67165;-0.00682797;0.191449;-0.0217761
1.6966;-0.00948002;0.191449;-0.025882
1.72155;-0.012612;0.191449;-0.0321288
1.7465;-0.0151479;0.191449;-0.0392227
1.77145;-0.0183761;0.191449;-0.0453735
1.7964;-0.021268;0.191449;-0.0506776
1.82135;-0.0244401;0.191449;-0.0576752
1.8463;-0.0274199;0.191449;-0.0637304
1.87125;-0.0305719;0.191449;-0.0679489
1.8962;-0.0331322;0.191449;-0.0728857
1.92115;-0.03622;0.191449;-0.0797235
1.9461;-0.0391682;0.191449;-0.0855549
1.97105;-0.04194;0.191449;-0.0907471
1.996;-0.0451237;0.191449;-0.0957637
2.02095;-0.04806;0.191449;-0.103097
2.0459;-0.0509121;0.191449;-0.107874
2.07085;-0.0540041;0.191449;-0.113066
2.0958;-0.0568522;0.191449;-0.11968
2.12075;-0.0594159;0.191449;-0.127461
2.1457;-0.0625718;0.191449;-0.13302
2.17065;-0.0652801;0.191449;-0.13831
2.1956;-0.0683201;0.191449;-0.143679
2.22055;-0.070856;0.191449;-0.151443
2.2455;-0.0735159;0.191449;-0.153152
2.27045;-0.0765278;0.191449;-0.159399
2.2954;-0.0790403;0.191449;-0.165119
2.32035;-0.0820201;0.191449;-0.170758
2.3453;-0.0849677;0.191449;-0.176302
2.37025;-0.087584;0.191449;-0.183156
2.3952;-0.0908156;0.191449;-0.187422
2.42015;-0.0934764;0.191449;-0.194467
2.4451;-0.0964401;0.191449;-0.200698
2.47005;-0.0990675;0.191449;-0.207583
2.495;-0.101936;0.191449;-0.215044
2.51995;-0.10488;0.191385;-0.218735
2.5449;-0.107748;0.191345;-0.22439
2.56985;-0.110832;0.191449;-0.230925
2.5948;-0.113636;0.191449;-0.236501
2.61975;-0.116752;0.191449;-0.242013
2.6447;-0.119528;0.191449;-0.247141
2.66965;-0.12242;0.191449;-0.252621
2.6946;-0.124908;0.191449;-0.255784
2.71955;-0.128132;0.191449;-0.262686
2.7445;-0.131096;0.191449;-0.268038
2.76945;-0.13418;0.191449;-0.273326
2.7944;-0.13674;0.191449;-0.279333
2.81935;-0.139847;0.191449;-0.286095
2.8443;-0.142524;0.191449;-0.292165
2.86925;-0.14566;0.191449;-0.298173
2.8942;-0.148661;0.191449;-0.303716
2.91915;-0.151252;0.191449;-0.310921
2.9441;-0.154399;0.191449;-0.317919
2.96905;-0.157024;0.191449;-0.321832
2.994;-0.160092;0.191449;-0.326864
3.01895;-0.162781;0.191449;-0.333129
3.0439;-0.165704;0.191449;-0.337186
3.06885;-0.168611;0.191449;-0.342809
3.0938;-0.171853;0.191449;-0.349169
3.11875;-0.175072;0.191449;-0.352076
3.1437;-0.177885;0.191449;-0.358753
3.16865;-0.180672;0.191449;-0.364283
3.1936;-0.183495;0.191449;-0.368547
3.21855;-0.186533;0.191449;-0.374985
3.2435;-0.189068;0.191449;-0.381761
3.26845;-0.191841;0.191449;-0.388281
3.2934;-0.190444;0.191449;-0.383854
3.31835;-0.187488;0.191449;-0.378483
3.3433;-0.184727;0.191449;-0.373388
3.36825;-0.182131;0.191449;-0.366727
3.3932;-0.178893;0.191449;-0.360462
3.41815;-0.176288;0.191449;-0.356694
3.4431;-0.173143;0.191449;-0.350783
3.46805;-0.170183;0.191449;-0.344982
3.493;-0.166852;0.191449;-0.339712
3.51795;-0.164177;0.191449;-0.334823
3.5429;-0.160853;0.191449;-0.328478
3.56785;-0.158344;0.191449;-0.324549
3.5928;-0.155463;0.191449;-0.319006
3.61775;-0.152524;0.191449;-0.312534
3.6427;-0.149765;0.191449;-0.307487
3.66765;-0.146828;0.191449;-0.30231
3.6926;-0.143752;0.191449;-0.294913
3.71755;-0.140904;0.191449;-0.287756
3.7425;-0.138244;0.191449;-0.281522
3.76745;-0.135108;0.191449;-0.276905
3.7924;-0.132564;0.191449;-0.27117
3.81735;-0.129176;0.191449;-0.26422
3.8423;-0.126504;0.191449;-0.259459
3.86725;-0.123273;0.191449;-0.255081
3.8922;-0.120759;0.191449;-0.248563
3.91715;-0.118132;0.191449;-0.244697
3.9421;-0.114815;0.191449;-0.238993
3.96705;-0.11216;0.191449;-0.232522
3.992;-0.109001;0.191449;-0.226371
4.01695;-0.105988;0.191449;-0.222106
4.0419;-0.103084;0.191449;-0.215252
4.06685;-0.100436;0.191449;-0.210108
4.0918;-0.0975519;0.191433;-0.203701
4.11675;-0.0948046;0.191449;-0.197534
4.1417;-0.0921075;0.191449;-0.190601
4.16665;-0.0889323;0.191449;-0.183891
4.1916;-0.0863998;0.191425;-0.179066
4.21655;-0.0831601;0.191449;-0.174081
4.2415;-0.0803561;0.191449;-0.167451
4.26645;-0.0774077;0.191449;-0.160565
4.2914;-0.0748161;0.191449;-0.156971
4.31635;-0.071984;0.191449;-0.151475
4.3413;-0.0692321;0.191449;-0.145963
4.36625;-0.066492;0.191449;-0.142256
4.3912;-0.0635519;0.191449;-0.135529
4.41615;-0.0606958;0.191449;-0.129298
4.4411;-0.0580001;0.191449;-0.12254
4.46605;-0.0551443;0.191449;-0.116677
4.491;-0.052432;0.191449;-0.110174
4.51595;-0.0492322;0.191449;-0.104039
4.5409;-0.0463918;0.191449;-0.0998057
4.56585;-0.0431439;0.191449;-0.093543
4.5908;-0.0404041;0.191449;-0.0876957
4.61575;-0.037152;0.191449;-0.0805064
4.6407;-0.0345442;0.191449;-0.0761129
4.66565;-0.0315998;0.191449;-0.0714318
4.6906;-0.0288;0.191449;-0.0645132
4.71555;-0.0254721;0.191449;-0.0605032
4.7405;-0.022672;0.191449;-0.0528984
4.76545;-0.0195679;0.191449;-0.0472907
4.7904;-0.0166759;0.191449;-0.0402452
4.81535;-0.013428;0.191449;-0.0353082
4.8403;-0.0108321;0.191449;-0.0295567
4.86525;-0.00796797;0.191449;-0.023917
4.8902;-0.00523199;0.191449;-0.0161043
4.91515;-0.00242798;0.191449;-0.0119506
4.9401;0.000680001;0.191449;-0.00715749
4.96505;0.00328799;0.191449;-0.000383439
4.99;0.006288;0.191449;0.0032113
5.01495;0.00896402;0.191449;0.00798826
5.0399;0.011796;0.191449;0.0151138
5.06485;0.0150919;0.191449;0.0195713
5.0898;0.0179401;0.191449;0.0250512
5.11475;0.02108;0.191449;0.0318891
5.1397;0.0239321;0.191449;0.0384398
5.16465;0.02682;0.191449;0.0420664
5.1896;0.0294439;0.191449;0.0482653
5.21455;0.0326361;0.191449;0.0554066
5.2395;0.035296;0.191449;0.0606309
5.26445;0.0386522;0.191449;0.0670222
5.2894;0.0414159;0.191449;0.0719271
5.31435;0.0444638;0.191449;0.0793081
5.3393;0.0472522;0.191449;0.085443
5.36425;0.050384;0.191449;0.0907951
5.3892;0.0528843;0.191449;0.0959075
5.41415;0.055824;0.191449;0.102282
5.4391;0.0587677;0.191449;0.107474
5.46405;0.0615361;0.191449;0.111612
5.489;0.0645759;0.191449;0.117524
5.51395;0.0671764;0.191449;0.122812
5.5389;0.0701638;0.191449;0.12909
5.56385;0.0727159;0.191449;0.135529
5.5888;0.0753521;0.191449;0.140931
5.61375;0.0784401;0.191449;0.145707
5.6387;0.0808443;0.191449;0.151651
5.66365;0.0842515;0.191449;0.159367
5.6886;0.0869922;0.191449;0.162403
5.71355;0.0900999;0.191449;0.168378
5.7385;0.0927484;0.191449;0.175344
5.76345;0.0953924;0.191457;0.179401
5.7884;0.0984353;0.191449;0.184769
5.81335;0.1011;0.191449;0.191336
5.8383;0.104232;0.191449;0.196112
5.86325;0.106837;0.191449;0.202199
5.8882;0.10992;0.191449;0.207823
5.91315;0.112995;0.191449;0.214917
5.9381;0.115684;0.191449;0.220077
5.96305;0.118712;0.191449;0.227426
5.988;0.121485;0.191449;0.231915
6.01295;0.12458;0.191449;0.238546
6.0379;0.127536;0.191449;0.245032
6.06285;0.13064;0.191449;0.249889
6.0878;0.13332;0.191449;0.255113
6.11275;0.136356;0.191449;0.260066
6.1377;0.13916;0.191449;0.264364
6.16265;0.1424;0.191449;0.270946
6.1876;0.144904;0.191449;0.277623
6.21255;0.148328;0.191449;0.281492
6.2375;0.150912;0.191449;0.287053
6.26245;0.154123;0.191449;0.293778
6.2874;0.15672;0.191465;0.299067
6.31235;0.15976;0.191449;0.303684
6.3373;0.162601;0.191449;0.310569
6.36225;0.165276;0.191449;0.317824
6.3872;0.168471;0.191449;0.323446
6.41215;0.1711;0.191449;0.327088
6.4371;0.174312;0.191449;0.334679
6.46205;0.177069;0.191457;0.340524
6.487;0.180016;0.191449;0.345607
6.51195;0.182695;0.191449;0.351102
6.5369;0.185244;0.191449;0.357842
6.56185;0.188357;0.191449;0.362877
6.5868;0.191009;0.191449;0.366759
6.61175;0.194084;0.191449;0.374425
6.6367;0.1968;0.191449;0.380035
6.66165;0.199576;0.191449;0.386572
6.6866;0.202493;0.191473;0.392513
6.71155;0.205617;0.191449;0.398615
6.7365;0.208392;0.191449;0.405664
6.76145;0.211691;0.191449;0.409943
6.7864;0.214566;0.191449;0.414831
6.81135;0.217428;0.191449;0.422119
6.8363;0.220428;0.191449;0.426079
6.86125;0.223083;0.191473;0.43068
6.8862;0.226151;0.191449;0.438096
6.91115;0.228714;0.191449;0.441512
6.9361;0.232044;0.191449;0.446448
6.96105;0.234668;0.191449;0.453098
6.986;0.237643;0.191497;0.459357
7.01095;0.240591;0.191449;0.465543
7.0359;0.243313;0.191449;0.47045
7.06085;0.246296;0.191449;0.478131
7.0858;0.248728;0.191505;0.484572
7.11075;0.251695;0.191449;0.488979
7.1357;0.254263;0.191449;0.494858
7.16065;0.255487;0.191449;0.501891
7.1856;0.255487;0.191449;0.506041
7.21055;0.255487;0.191449;0.510466
7.2355;0.255487;0.191449;0.517452
7.26045;0.255487;0.191457;0.521619
7.2854;0.255487;0.191473;0.526986
7.31035;0.255487;0.191449;0.534275
7.3353;0.255487;0.191449;0.540758
7.36025;0.255487;0.191449;0.546223
7.3852;0.255487;0.191449;0.551878
7.41015;0.255487;0.191449;0.558187
7.4351;0.255487;0.191449;0.565412
7.46005;0.255487;0.191449;0.571679
7.485;0.255487;0.191449;0.577125
7.50995;0.255487;0.191449;0.58206
7.5349;0.255487;0.191449;0.589346
7.55985;0.255487;0.191449;0.593243
7.5848;0.255487;0.191449;0.59901
7.60975;0.255487;0.191449;0.605692
7.6347;0.255487;0.191449;0.610339
7.65965;0.255487;0.191681;0.615098
7.6846;0.255487;0.191449;0.621681
7.70955;0.255487;0.191473;0.626473
7.7345;0.255487;0.191553;0.631938
7.75945;0.255487;0.191553;0.638332
7.7844;0.255487;0.191449;0.645567
7.80935;0.255487;0.191449;0.650517
7.8343;0.255487;0.191449;0.655471
7.85925;0.255487;0.191449;0.661701
7.8842;0.255487;0.191921;0.667585
7.90915;0.255487;0.191489;0.671132
7.9341;0.255487;0.191473;0.677601
7.95905;0.255487;0.191521;0.683189
7.984;0.255487;0.191529;0.687089
8.00895;0.255487;0.191489;0.693573
8.0339;0.255487;0.191457;0.698722
8.05885;0.255487;0.191497;0.702813
8.0838;0.255487;0.191801;0.709697
8.10875;0.255487;0.191489;0.716803
8.1337;0.255487;0.191521;0.722985
8.15865;0.255487;0.191665;0.729555
8.1836;0.255487;0.191457;0.734845
8.20855;0.255487;0.191449;0.741426
8.2335;0.255487;0.191529;0.747508
8.25845;0.255487;0.191673;0.753184
8.2834;0.255487;0.191457;0.754748
8.30835;0.255487;0.191449;0.748836
8.3333;0.255487;0.191513;0.742113
8.35825;0.255487;0.191449;0.736058
8.3832;0.255487;0.191449;0.730352
8.40815;0.255487;0.191465;0.724182
8.4331;0.255487;0.191449;0.717171
8.45805;0.255487;0.191457;0.710608
8.483;0.255487;0.191449;0.705032
8.50795;0.255487;0.191449;0.700447
8.5329;0.255487;0.191521;0.693717
8.55785;0.255487;0.191449;0.689004
8.5828;0.255487;0.191449;0.684933
8.60775;0.255487;0.191537;0.677761
8.6327;0.255487;0.191449;0.672984
8.65765;0.255487;0.191449;0.669678
8.6826;0.255487;0.191457;0.661893
8.70755;0.255487;0.191449;0.658042
8.7325;0.255487;0.191449;0.65341
8.75745;0.255487;0.191497;0.645807
8.7824;0.255487;0.191449;0.638891
8.80735;0.255487;0.191449;0.633566
8.8323;0.255487;0.191449;0.628613
8.85725;0.255487;0.191449;0.621841
8.8822;0.255487;0.191449;0.616682
8.90715;0.255487;0.191481;0.613102
8.9321;0.255487;0.191497;0.605931
8.95705;0.255487;0.191521;0.600943
8.982;0.255487;0.191529;0.595511
9.00695;0.255487;0.191449;0.589953
9.0319;0.255487;0.191449;0.582444
9.05685;0.255487;0.191449;0.578611
9.0818;0.255487;0.191449;0.572812
9.10675;0.255487;0.191449;0.565875
9.1317;0.255487;0.191449;0.558682
9.15665;0.255487;0.191449;0.553253
9.1816;0.255487;0.191449;0.547805
9.20655;0.255487;0.191449;0.541764
9.2315;0.255487;0.191449;0.534546
9.25645;0.255487;0.191449;0.529126
9.2814;0.255487;0.191449;0.523345
9.30635;0.255487;0.191577;0.518202
9.3313;0.255487;0.191569;0.511585
9.35625;0.255487;0.191449;0.508902
9.3812;0.255487;0.191745;0.502258
9.40615;0.254687;0.191449;0.497094
9.4311;0.252195;0.191449;0.491281
9.45605;0.249276;0.191457;0.486106
9.481;0.246605;0.191465;0.479281
9.50595;0.244153;0.191681;0.473118
9.5309;0.241267;0.191457;0.467076
9.55585;0.23848;0.191577;0.461004
9.5808;0.235388;0.191505;0.454424
9.60575;0.232525;0.191465;0.447503
9.6307;0.2297;0.191513;0.445155
9.65565;0.226551;0.191553;0.438479
9.6806;0.223915;0.191465;0.432533
9.70555;0.220825;0.191449;0.428509
9.7305;0.218337;0.191449;0.422535
9.75545;0.215179;0.191465;0.416029
9.7804;0.21242;0.191449;0.411383
9.80535;0.209164;0.191449;0.406558
9.8303;0.206449;0.191449;0.39975
9.85525;0.203089;0.191449;0.395023
9.8802;0.200235;0.191921;0.389271
9.90515;0.197368;0.191481;0.382287
9.9301;0.194608;0.191449;0.374729
9.95505;0.191729;0.191497;0.368628
9.98;0.188925;0.191449;0.364457
10.0049;0.186243;0.191473;0.358753
10.0299;0.183331;0.191449;0.35254
10.0548;0.18052;0.191449;0.34773
10.0798;0.177737;0.191465;0.341644
10.1047;0.174917;0.191449;0.334839
10.1297;0.17178;0.191449;0.329629
10.1546;0.168955;0.191529;0.325188
10.1796;0.166272;0.191449;0.318814
10.2045;0.162961;0.191449;0.312406
10.2295;0.160389;0.191449;0.305666
10.2544;0.157484;0.191449;0.299402
10.2794;0.15462;0.191449;0.294945
10.3043;0.151864;0.191449;0.287868
10.3293;0.148892;0.191457;0.283408
10.3542;0.145952;0.191529;0.278981
10.3792;0.142947;0.191465;0.271409
10.4042;0.139972;0.191449;0.266185
10.4291;0.136865;0.191449;0.26283
10.4541;0.134292;0.191449;0.255672
10.479;0.131244;0.191449;0.252333
10.504;0.128527;0.191449;0.246742
10.5289;0.125156;0.191449;0.240304
10.5539;0.122425;0.191537;0.233465
10.5788;0.119408;0.191449;0.229726
10.6037;0.116344;0.191449;0.22316
10.6287;0.113684;0.191449;0.215987
10.6536;0.11076;0.191449;0.210891
10.6786;0.107428;0.191449;0.204372
10.7035;0.104776;0.191449;0.198828
10.7285;0.102024;0.191449;0.191368
10.7534;0.099052;0.191449;0.187134
10.7784;0.0964444;0.191449;0.182117
10.8033;0.0933718;0.191449;0.175391
10.8283;0.09066;0.191449;0.170183
10.8532;0.0877277;0.191449;0.164176
10.8782;0.084876;0.191449;0.159447
10.9031;0.0816166;0.191449;0.153648
10.9281;0.0789316;0.191465;0.14919
10.953;0.0763282;0.191449;0.143503
10.978;0.0731759;0.191449;0.13644
11.0029;0.0706837;0.191449;0.130432
11.0279;0.0679804;0.191449;0.125112
11.0528;0.0650997;0.191449;0.119377
11.0778;0.0622282;0.191449;0.112235
11.1027;0.0592042;0.191449;0.108449
11.1277;0.0566878;0.191449;0.10364
11.1526;0.0537722;0.191449;0.0969459
11.1776;0.0508278;0.191449;0.0934951
11.2025;0.0482362;0.191449;0.0866893
11.2275;0.044996;0.191449;0.0799472
11.2524;0.042312;0.191449;0.0729656
11.2774;0.039228;0.191449;0.0693226
11.3024;0.0362561;0.191449;0.0633789
11.3273;0.0330878;0.191449;0.0564611
11.3523;0.0303839;0.191449;0.0491759
11.3772;0.027336;0.191449;0.0452618
11.4022;0.0246321;0.191449;0.0394464
11.4271;0.0216161;0.191449;0.0324803
11.452;0.018912;0.191449;0.0267608
11.477;0.0156639;0.191449;0.0229584
11.5019;0.0127361;0.191449;0.0159446
11.5269;0.00948397;0.191449;0.0096179
11.5518;0.00674403;0.191449;0.00528825
11.5768;0.00411598;0.191529;0
11.6017;0.001328;0.191449;-0.00512848
11.6267;-0.001584;0.191449;-0.00917054
11.6516;-0.00472401;0.191449;-0.0159446
11.6766;-0.00707597;0.191449;-0.0225589
11.7015;-0.010252;0.191449;-0.0270483
11.7265;-0.013128;0.191449;-0.0323845
11.7514;-0.015948;0.191449;-0.0398618
11.7764;-0.019084;0.191449;-0.0461564
11.8013;-0.02204;0.191449;-0.0519877
11.8263;-0.02486;0.191449;-0.057851
11.8512;-0.0280959;0.191449;-0.0639221
11.8762;-0.0309079;0.191449;-0.0703934
11.9011;-0.0338441;0.191449;-0.0742436
11.9261;-0.03674;0.191449;-0.0798034
11.951;-0.0393761;0.191449;-0.0864815
11.976;-0.042692;0.191449;-0.0919613
12.0009;-0.0455717;0.191449;-0.0964666
12.0259;-0.0485279;0.191449;-0.103736
12.0508;-0.0513681;0.191465;-0.108768
12.0758;-0.0546839;0.191449;-0.115351
12.1007;-0.0572122;0.191449;-0.120511
12.1257;-0.0603681;0.191449;-0.127541
12.1507;-0.0629436;0.191449;-0.135018
12.1756;-0.0659241;0.191449;-0.139828
12.2006;-0.0686679;0.191449;-0.143854
12.2255;-0.0711601;0.191449;-0.150484
12.2505;-0.074336;0.191449;-0.154878
12.2754;-0.0768836;0.191449;-0.159687
12.3003;-0.0793963;0.191449;-0.166525
12.3253;-0.0827719;0.191449;-0.172723
12.3502;-0.0854039;0.191449;-0.177165
12.3752;-0.0884399;0.191449;-0.183364
12.4001;-0.0911715;0.191449;-0.188668
12.4251;-0.0942562;0.191449;-0.19608
12.45;-0.0969878;0.191449;-0.2018
12.475;-0.0996959;0.191449;-0.207807
12.4999;-0.102652;0.191449;-0.215252
12.5249;-0.105268;0.191449;-0.220508
12.5498;-0.108472;0.191449;-0.224694
12.5748;-0.111176;0.191449;-0.231356
12.5997;-0.114448;0.191449;-0.23869
12.6247;-0.117252;0.191449;-0.243882
12.6496;-0.120365;0.191449;-0.247668
12.6746;-0.122784;0.191449;-0.254266
12.6995;-0.125647;0.191449;-0.256902
12.7245;-0.128628;0.191449;-0.263085
12.7494;-0.131684;0.191449;-0.270035
12.7744;-0.134609;0.191449;-0.275403
12.7993;-0.13742;0.191449;-0.279669
12.8243;-0.140483;0.191449;-0.286159
12.8492;-0.142928;0.191449;-0.294433
12.8742;-0.146184;0.191449;-0.299898
12.8991;-0.148909;0.191449;-0.305233
12.9241;-0.151936;0.191449;-0.311736
12.949;-0.154799;0.191449;-0.318894
12.974;-0.157821;0.191449;-0.324308
12.999;-0.160524;0.191449;-0.327904
13.0239;-0.163349;0.191449;-0.334679
13.0489;-0.166448;0.191449;-0.338975
13.0738;-0.169255;0.191449;-0.343848
13.0988;-0.172645;0.191449;-0.350655
13.1237;-0.17548;0.191449;-0.354312
13.1486;-0.178428;0.191449;-0.359137
13.1736;-0.181099;0.191449;-0.365896
13.1985;-0.18405;0.191449;-0.370927
13.2235;-0.186813;0.191449;-0.375097
13.2484;-0.189756;0.191449;-0.382671
13.2734;-0.191913;0.191449;-0.388664
13.2983;-0.189848;0.191449;-0.383039
13.3233;-0.186775;0.191449;-0.376342
13.3482;-0.184267;0.191449;-0.370689
13.3732;-0.181076;0.191449;-0.366695
13.3981;-0.178565;0.191449;-0.359424
13.4231;-0.175512;0.191449;-0.355177
13.448;-0.172727;0.191409;-0.350351
13.473;-0.169195;0.191449;-0.343464
13.4979;-0.166432;0.191449;-0.338721
13.5229;-0.163457;0.191449;-0.334615
13.5478;-0.160561;0.191449;-0.328111
13.5728;-0.157748;0.191449;-0.324358
13.5977;-0.154903;0.191449;-0.318894
13.6227;-0.151952;0.191449;-0.312726
13.6476;-0.148996;0.191449;-0.305554
13.6726;-0.146252;0.191449;-0.299594
13.6975;-0.142983;0.191449;-0.29445
13.7225;-0.140444;0.191449;-0.287085
13.7474;-0.137409;0.191449;-0.281026
13.7724;-0.13466;0.191449;-0.275371
13.7973;-0.13174;0.191449;-0.269955
13.8223;-0.128811;0.191449;-0.263101
13.8472;-0.125708;0.191449;-0.257238
13.8722;-0.122813;0.191449;-0.254107
13.8972;-0.120356;0.191449;-0.247269
13.9221;-0.117348;0.191449;-0.24393
13.9471;-0.114451;0.191449;-0.238147
