t;vds;corrente;vg
0.00998;0.000872831;-0.00171214;-0.00587615
0.01996;0.00267187;0.00736003;-0.00352975
0.02994;0.00439183;0.021894;-0.00384991
0.03992;0.00624029;0.0303991;-0.00356977
0.0499;0.00820638;0.0362499;-0.00391394
0.05988;0.0103405;0.0486151;-0.00399398
0.06986;0.0119685;0.0572901;-0.00393795
0.07984;0.0138565;0.063412;-0.00360979
0.08982;0.0156565;0.0790222;-0.0034257
0.0998;0.0177353;0.0811626;-0.0038419
0.10978;0.0197943;0.0888828;-0.00377787
0.11976;0.0217169;0.098432;-0.00294546
0.12974;0.0232639;0.116332;-0.00338568
0.13972;0.0249433;0.12799;-0.00199299
0.1497;0.0271298;0.123632;-0.00348973
0.15968;0.0291967;0.133589;-0.00372184
0.16966;0.030892;0.154973;-0.00290544
0.17964;0.0325921;0.156717;-0.00318558
0.18962;0.0343181;0.169912;-0.00320159
0.1996;0.0365291;0.175536;-0.0028174
0.20958;0.0385468;0.18265;-0.00257728
0.21956;0.0404474;0.193687;-0.00268133
0.22954;0.0420727;0.198774;-0.00364981
0.23952;0.0440267;0.2105;-0.00378588
0.2495;0.0458587;0.224629;-0.00327362
0.25948;0.0457556;0.218649;-0.00365781
0.26946;0.0438036;0.20776;-0.00393795
0.27944;0.0417889;0.199207;-0.00366582
0.28942;0.0399248;0.185741;-0.00351374
0.2994;0.0380109;0.185644;-0.00312955
0.30938;0.0362831;0.176851;-0.00354576
0.31936;0.0342844;0.167836;-0.00380188
0.32934;0.0322739;0.158822;-0.00313756
0.33932;0.0304817;0.140565;-0.00365781
0.3493;0.0284751;0.138226;-0.00357777
0.35928;0.0266365;0.131064;-0.00341769
0.36926;0.0248869;0.117716;-0.0024172
0.37924;0.0231748;0.105768;-0.00308153
0.38922;0.0212048;0.102822;-0.00350574
0.3992;0.0191755;0.0908574;-0.00347372
0.40918;0.017328;0.0848487;-0.00357777
0.41916;0.0154569;0.07445;-0.00381789
0.42914;0.0135619;0.0674946;-0.00329763
0.43912;0.0117066;0.0559953;-0.00396196
0.4491;0.00975433;0.0478341;-0.00399398
0.45908;0.00789402;0.035562;-0.00394595
0.46906;0.00605742;0.0269922;-0.00399398
0.47904;0.0041536;0.0228084;-0.00385791
0.48902;0.00220333;0.0115883;-0.00276937
0.499;0.000429001;-0.000477452;-0.00283341
0.50898;-0.00149162;-0.00829874;-0.0036418
0.51896;-0.00332723;-0.0190535;-0.00336967
0.52894;-0.00523401;-0.0265147;-0.0036418
0.53892;-0.00720011;-0.0356834;-0.00348973
0.5489;-0.00905152;-0.0449209;-0.0028174
0.55888;-0.0109277;-0.0576138;-0.00356176
0.56886;-0.0129619;-0.0644276;-0.00376186
0.57884;-0.0147955;-0.0772379;-0.00392995
0.58882;-0.0167122;-0.085658;-0.00312955
0.5988;-0.0186012;-0.0848731;-0.00314556
0.60878;-0.02051;-0.0960891;-0.00364981
0.61876;-0.0222616;-0.103745;-0.0032256
0.62874;-0.024359;-0.113824;-0.00341769
0.63872;-0.0261077;-0.131417;-0.00276137
0.6487;-0.0279502;-0.131445;-0.00311354
0.65868;-0.0300635;-0.145756;-0.00351374
0.66866;-0.0318132;-0.157636;-0.00320959
0.67864;-0.0334847;-0.165927;-0.00396196
0.68862;-0.035604;-0.167266;-0.00352975
0.6986;-0.0376117;-0.173412;-0.00399398
0.70858;-0.0394749;-0.185154;-0.00394595
0.71856;-0.0413028;-0.197434;-0.00397797
0.72854;-0.0431788;-0.20267;-0.00371384
0.73852;-0.0451086;-0.21037;-0.00292145
0.7485;-0.046948;-0.213789;-0.00379388
0.75848;-0.0468562;-0.214805;-0.00280939
0.76846;-0.0450411;-0.209929;-0.00340969
0.77844;-0.0430842;-0.200692;-0.00368182
0.78842;-0.0412008;-0.191507;-0.00295346
0.7984;-0.0395413;-0.189605;-0.00316957
0.80838;-0.0375414;-0.17991;-0.00376186
0.81836;-0.0356912;-0.171858;-0.00354576
0.82834;-0.0336776;-0.160869;-0.00344171
0.83832;-0.0318311;-0.156272;-0.00238518
0.8483;-0.0299718;-0.146412;-0.00351374
0.85828;-0.0281312;-0.133253;-0.00341769
0.86826;-0.0261967;-0.122895;-0.00292945
0.87824;-0.0242613;-0.117603;-0.0036258
0.88822;-0.0224424;-0.109413;-0.00288943
0.8982;-0.0204339;-0.101305;-0.00300949
0.90818;-0.0185933;-0.0930059;-0.00311354
0.91816;-0.0165778;-0.0866816;-0.00316957
0.92814;-0.014753;-0.0706871;-0.00326562
0.93812;-0.0130697;-0.0630196;-0.00355376
0.9481;-0.0110868;-0.0570919;-0.00352975
0.95808;-0.00913454;-0.0476885;-0.00372985
0.96806;-0.00734443;-0.038188;-0.00360178
0.97804;-0.00536153;-0.0291124;-0.00358578
0.98802;-0.00336776;-0.0202269;-0.00384991
0.998;-0.00148272;-0.0105039;-0.00391394
1.00798;0.000365738;0.00725078;-0.00399398
1.01796;0.00207779;0.0115397;-0.00399398
1.02794;0.00409627;0.018398;-0.00372985
1.03792;0.00595067;0.0240546;-0.00375386
1.0479;0.00785943;0.0319771;-0.00372985
1.05788;0.00971479;0.0468792;-0.00380188
1.06786;0.0115514;0.0537982;-0.00390593
1.07784;0.0134829;0.0693437;-0.00369783
1.08782;0.0154035;0.0758622;-0.00388993
1.0978;0.0172648;0.0832303;-0.00372184
1.10778;0.0190875;0.0911771;-0.00327362
1.11776;0.0210655;0.0974001;-0.0034257
1.12774;0.0229841;0.110599;-0.00252125
1.13772;0.0249076;0.112837;-0.00356977
1.1477;0.0268431;0.12983;-0.00353775
1.15768;0.0286283;0.139327;-0.00324961
1.16766;0.0303997;0.147905;-0.00361779
1.17764;0.0322937;0.154031;-0.00271335
1.18762;0.0341658;0.16008;-0.00272935
1.1976;0.0362761;0.169224;-0.00396997
1.20758;0.0381543;0.180578;-0.00378588
1.21756;0.0398139;0.192364;-0.00369783
1.22754;0.0418553;0.202193;-0.00350574
1.23752;0.0437026;0.210216;-0.00370584
1.2475;0.0456235;0.218183;-0.00345771
1.25748;0.045977;0.220793;-0.00287343
1.26746;0.044104;0.204879;-0.00324161
1.27744;0.0422348;0.197649;-0.00338568
1.28742;0.0403863;0.191879;-0.00352175
1.2974;0.0385417;0.189188;-0.00279339
1.30738;0.036466;0.181375;-0.00341769
1.31736;0.0344642;0.17232;-0.00387392
1.32734;0.0325674;0.155143;-0.00355376
1.33732;0.0309146;0.138129;-0.00396196
1.3473;0.0290524;0.137441;-0.00399398
1.35728;0.0271366;0.127605;-0.00388192
1.36726;0.0252783;0.11876;-0.00385791
1.37724;0.0232905;0.121236;-0.00399398
1.38722;0.0215142;0.112007;-0.00360178
1.3972;0.0196806;0.0932528;-0.00377787
1.40718;0.017584;0.090388;-0.00399398
1.41716;0.0155201;0.0800824;-0.00352975
1.42714;0.0140295;0.0429423;-0.00397797
1.43712;0.0124983;0.049667;-0.00398597
1.4471;0.0100706;0.0684738;-0.00380989
1.45708;0.00820736;0.0333366;-0.0030255
1.46706;0.0064884;0.0181067;-0.00395396
1.47704;0.00468936;0.0346193;-0.00357777
1.48702;0.00234567;0.0176819;-0.00150475
1.497;0.000767062;-0.0109085;-0.00360979
1.50698;-0.00118321;-0.0079265;-0.00370584
1.51696;-0.00308308;-0.0138299;-0.00324961
1.52694;-0.00489694;-0.0344129;-0.00396997
1.53692;-0.00681658;-0.0370914;-0.00389793
1.5469;-0.00860967;-0.0422585;-0.00314556
1.55688;-0.0105589;-0.0481862;-0.00330564
1.56686;-0.0125823;-0.0605109;-0.00355376
1.57684;-0.0144367;-0.071901;-0.00366582
1.58682;-0.0162437;-0.0868435;-0.00391394
1.5968;-0.0182019;-0.0896111;-0.00367382
1.60678;-0.0202193;-0.0915128;-0.00374586
1.61676;-0.0221241;-0.108956;-0.00392995
1.62674;-0.0238262;-0.116154;-0.0038259
1.63672;-0.0256381;-0.125246;-0.0030175
1.6467;-0.0277742;-0.132367;-0.00348973
1.65668;-0.0298095;-0.14695;-0.0038419
1.66666;-0.0317005;-0.150939;-0.00369783
1.67664;-0.0333978;-0.159408;-0.00399398
1.68662;-0.0351119;-0.174573;-0.00399398
1.6966;-0.0369574;-0.178794;-0.00397797
1.70658;-0.039125;-0.179137;-0.00379388
1.71656;-0.0412445;-0.191066;-0.00355376
1.72654;-0.0428053;-0.206579;-0.00361779
1.73652;-0.0445764;-0.211147;-0.00398597
1.7465;-0.0465031;-0.213137;-0.00385791
1.75648;-0.0473839;-0.216577;-0.00378588
1.76646;-0.045721;-0.213215;-0.00348173
1.77644;-0.0435279;-0.205442;-0.00339368
1.78642;-0.041526;-0.199724;-0.00372184
1.7964;-0.0397182;-0.187036;-0.0036338
1.80638;-0.0380277;-0.178158;-0.00344971
1.81636;-0.0362396;-0.170483;-0.00380989
1.82634;-0.0342972;-0.159327;-0.0038419
1.83632;-0.0321069;-0.15223;-0.00392194
1.8463;-0.0303197;-0.14432;-0.00389793
1.85628;-0.0286975;-0.141221;-0.00385791
1.86626;-0.0266365;-0.137239;-0.00393795
1.87624;-0.0246922;-0.117943;-0.00393795
1.88622;-0.0226955;-0.111489;-0.00368182
1.8962;-0.0207788;-0.0991925;-0.00369783
1.90618;-0.0191162;-0.0907036;-0.00372985
1.91616;-0.0172391;-0.0891822;-0.00396997
1.92614;-0.015276;-0.0787754;-0.00399398
1.93612;-0.0133899;-0.0640715;-0.00372985
1.9461;-0.0113902;-0.0584271;-0.00392194
1.95608;-0.00947459;-0.0482671;-0.00366582
1.96606;-0.00757573;-0.0423313;-0.00387392
1.97604;-0.00581722;-0.0307673;-0.00399398
1.98602;-0.00383235;-0.0242124;-0.00391394
1.996;-0.00201255;-0.00992936;-0.00376186
2.00598;6.91939e-06;-0.00460458;-0.00389793
2.01596;0.00190184;0.00651842;-0.00375386
2.02594;0.00374932;0.0162495;-0.0034337
2.03592;0.00563732;0.0193732;-0.00273736
2.0459;0.0075441;0.0303424;-0.00361779
2.05588;0.00929073;0.048263;-0.00328963
2.06586;0.011241;0.0485827;-0.00356977
2.07584;0.013042;0.0664507;-0.00286542
2.08582;0.0150951;0.0678669;-0.00328163
2.0958;0.0169623;0.0789333;-0.00296947
2.10578;0.018792;0.0910071;-0.00315356
2.11576;0.0207521;0.0972302;-0.00329763
2.12574;0.0225651;0.111076;-0.00291345
2.13572;0.0245569;0.11475;-0.00237718
2.1457;0.0263598;0.126136;-0.00324961
2.15568;0.028143;0.137579;-0.00275337
2.16566;0.0299697;0.14733;-0.00309754
2.17564;0.0320998;0.153513;-0.00344971
2.18562;0.0338534;0.164215;-0.00272935
2.1956;0.0358471;0.171482;-0.00165682
2.20558;0.0377185;0.18199;-0.00276137
2.21556;0.0395392;0.192441;-0.00369783
2.22554;0.0413344;0.1993;-0.00398597
2.23552;0.0433428;0.203933;-0.0038259
2.2455;0.0451916;0.214441;-0.00286542
2.25548;0.0462708;0.221817;-0.00344971
2.26546;0.044614;0.214404;-0.00304151
2.27544;0.0426351;0.207428;-0.00212906
2.28542;0.0407016;0.194335;-0.00260129
2.2954;0.0388207;0.182557;-0.0028174
2.30538;0.0369414;0.177118;-0.00358578
2.31536;0.0350584;0.165858;-0.00345771
2.32534;0.0330537;0.160452;-0.00341769
2.33532;0.0313773;0.149568;-0.00297748
2.3453;0.0293401;0.141463;-0.00310554
2.35528;0.0274669;0.136948;-0.00346572
2.36526;0.0255512;0.126403;-0.00353775
2.37524;0.0236751;0.112359;-0.0034337
2.38522;0.0219127;0.104368;-0.00232115
2.3952;0.0200276;0.0953851;-0.00348973
2.40518;0.0182286;0.0877296;-0.00395396
2.41516;0.0162358;0.078832;-0.00392194
2.42514;0.0143379;0.0690484;-0.00376186
2.43512;0.0123847;0.0600254;-0.0038419
2.4451;0.0103672;0.0532479;-0.00347372
2.45508;0.00849994;0.0410891;-0.00359378
2.46506;0.00661789;0.0307794;-0.00349773
2.47504;0.00488805;0.0204616;-0.00374586
2.48502;0.00297237;0.0102005;-0.00345771
2.495;0.00119409;0.00163062;-0.00356176
2.50498;-0.000683041;-0.000432944;-0.00304951
2.51496;-0.0026867;-0.0138218;-0.00379388
2.52494;-0.00452626;-0.0230552;-0.0036418
2.53492;-0.00642118;-0.0350725;-0.00300949
2.5449;-0.00838134;-0.0381759;-0.00254526
2.55488;-0.0101458;-0.0539763;-0.00376186
2.56486;-0.0120812;-0.0637843;-0.00376186
2.57484;-0.0139633;-0.0690686;-0.00357777
2.58482;-0.0160045;-0.0738228;-0.0038419
2.5948;-0.0178588;-0.0853181;-0.00334566
2.60478;-0.0197992;-0.0976834;-0.0030175
2.61476;-0.0216911;-0.110368;-0.00375386
2.62474;-0.0235258;-0.115895;-0.0038419
2.63472;-0.0253624;-0.125185;-0.00392194
2.6447;-0.027282;-0.132667;-0.00385791
2.65468;-0.0293539;-0.139416;-0.00373785
2.66466;-0.0311055;-0.149774;-0.00392995
2.67464;-0.032958;-0.161439;-0.00394595
2.68462;-0.0348213;-0.167573;-0.00344971
2.6946;-0.0368189;-0.177604;-0.00360178
2.70458;-0.0386843;-0.1843;-0.0038339
2.71456;-0.0404701;-0.190754;-0.00370584
2.72454;-0.0422902;-0.196451;-0.00389793
2.73452;-0.0443143;-0.204572;-0.0038339
2.7445;-0.0462866;-0.210949;-0.00395396
2.75448;-0.0474649;-0.220939;-0.00375386
2.76446;-0.0458841;-0.215861;-0.00394595
2.77444;-0.0437987;-0.209193;-0.00386592
2.78442;-0.0418778;-0.19654;-0.00390593
2.7944;-0.0401649;-0.188905;-0.00263331
2.80438;-0.0383449;-0.1797;-0.0036338
2.81436;-0.0363197;-0.174254;-0.0038339
2.82434;-0.0345186;-0.16165;-0.0032336
2.83432;-0.0325753;-0.157296;-0.0032256
2.8443;-0.0307327;-0.14973;-0.00292945
2.85428;-0.0288635;-0.144818;-0.00264931
2.86426;-0.0267946;-0.133415;-0.00387392
2.87424;-0.024961;-0.122029;-0.00398597
2.88422;-0.0231798;-0.108612;-0.00381789
2.8942;-0.0213481;-0.0977156;-0.0034337
2.90418;-0.0195778;-0.0963602;-0.00370584
2.91416;-0.0174279;-0.0909908;-0.00376987
2.92414;-0.0154588;-0.0780834;-0.00399398
2.93412;-0.0137043;-0.0687449;-0.0038339
2.9441;-0.0118113;-0.0636953;-0.00376987
2.95408;-0.00990951;-0.0462885;-0.00376186
2.96406;-0.00808183;-0.0324464;-0.00395396
2.97404;-0.00599811;-0.0342956;-0.00328163
2.98402;-0.00418029;-0.0221286;-0.00372184
2.994;-0.00258686;-0.0107548;-0.0036258
3.00398;-0.000637571;-0.0198992;-0.00308153
3.01396;0.00196609;-0.00620282;-0.00389793
3.02394;0.00325903;0.0372048;-0.0030255
3.03392;0.0051579;0.0231483;-0.00286542
3.0439;0.00721296;0.0178478;-0.00360979
3.05388;0.00914346;0.0511763;-0.00352175
3.06386;0.0107675;0.0638449;-0.00355376
3.07384;0.0127158;0.0453417;-0.00328963
3.08382;0.0146898;0.0706952;-0.00354576
3.0938;0.0165274;0.0860059;-0.00340169
3.10378;0.0184381;0.0789858;-0.00392194
3.11376;0.0204161;0.0921724;-0.00376186
3.12374;0.0222556;0.107241;-0.0034337
3.13372;0.023935;0.122345;-0.00377787
3.1437;0.0259278;0.128435;-0.00331364
3.15368;0.0277426;0.132355;-0.00332965
3.16366;0.0298086;0.136612;-0.00344971
3.17364;0.0316807;0.149985;-0.00285742
3.18362;0.0333958;0.161856;-0.00332165
3.1936;0.0352136;0.173145;-0.0022171
3.20358;0.0373983;0.1773;-0.0022171
3.21356;0.0393672;0.191126;-0.00204902
3.22354;0.0410843;0.20034;-0.00348973
3.23352;0.0428241;0.207052;-0.00279339
3.2435;0.0445733;0.214452;-0.00376186
3.25348;0.0461039;0.223192;-0.00394595
3.26346;0.0449036;0.212612;-0.00331364
3.27344;0.0432344;0.200514;-0.00388192
3.28342;0.0410674;0.202039;-0.00398597
3.2934;0.0389463;0.192118;-0.00386592
3.30338;0.0373132;0.175613;-0.0038259
3.31336;0.0356951;0.159962;-0.00326562
3.32334;0.0335985;0.163422;-0.00299348
3.33332;0.0315207;0.150741;-0.00229714
3.3433;0.0295477;0.146266;-0.00285742
3.35328;0.0277527;0.131081;-0.00354576
3.36326;0.0262116;0.121981;-0.00365781
3.37324;0.0243255;0.112978;-0.00284941
3.38322;0.0222092;0.111416;-0.00380188
3.3932;0.0200761;0.0963036;-0.00380188
3.40318;0.0183709;0.090133;-0.00368983
3.41316;0.0168813;0.0800176;-0.00378588
3.42314;0.0148638;0.0700073;-0.00367382
3.43312;0.0126723;0.0570473;-0.00338568
3.4431;0.0109158;0.0434157;-0.00348973
3.45308;0.00883604;0.0398227;-0.00366582
3.46306;0.00714475;0.034599;-0.00276937
3.47304;0.00534473;0.0288089;-0.00291345
3.48302;0.00344684;0.0209714;-0.002009
3.493;0.00139376;0.000938719;-0.00173686
3.50298;-0.000323233;-0.00982416;-0.00372985
3.51296;-0.00219937;-0.0121629;-0.00310554
3.52294;-0.0041111;-0.0230795;-0.00310554
3.53292;-0.00608213;-0.0299742;-0.00222511
3.5429;-0.00796717;-0.0428249;-0.00235317
3.55288;-0.00982846;-0.0484451;-0.00388993
3.56286;-0.0117807;-0.0602762;-0.0036258
3.57284;-0.0137596;-0.0635699;-0.00333765
3.58282;-0.0155517;-0.0781078;-0.00329763
3.5928;-0.0174981;-0.0840557;-0.00391394
3.60278;-0.0193663;-0.0941753;-0.00344971
3.61276;-0.0211811;-0.105258;-0.0032336
3.62274;-0.0231492;-0.113739;-0.0038419
3.63272;-0.0249819;-0.120848;-0.00358578
3.6427;-0.0267928;-0.131376;-0.00340169
3.65268;-0.0288291;-0.140144;-0.00348173
3.66266;-0.0306242;-0.149074;-0.00385791
3.67264;-0.0325339;-0.156309;-0.00387392
3.68262;-0.0344891;-0.1664;-0.00387392
3.6926;-0.036374;-0.17024;-0.00398597
3.70258;-0.0383481;-0.179651;-0.00398597
3.71256;-0.0401598;-0.18914;-0.00390593
3.72254;-0.0420411;-0.196216;-0.00386592
3.73252;-0.0439911;-0.206696;-0.00332965
3.7425;-0.0457599;-0.214238;-0.00358578
3.75248;-0.0472722;-0.221663;-0.00390593
3.76246;-0.0461569;-0.214295;-0.00388192
3.77244;-0.0443323;-0.204576;-0.00372985
3.78242;-0.0423819;-0.198854;-0.00337767
3.7924;-0.0405622;-0.192955;-0.00365781
3.80238;-0.0386555;-0.18165;-0.00263331
3.81236;-0.0368109;-0.1769;-0.00286542
3.82234;-0.0348795;-0.164883;-0.00299348
3.83232;-0.0328866;-0.163475;-0.00348173
3.8423;-0.0310382;-0.147132;-0.0038339
3.85228;-0.0292303;-0.137089;-0.00367382
3.86226;-0.0273403;-0.133812;-0.00399398
3.87224;-0.0254484;-0.122746;-0.00395396
3.88222;-0.023504;-0.115709;-0.00360178
3.8922;-0.0215765;-0.106731;-0.00340969
3.90218;-0.0197864;-0.0971573;-0.00340169
3.91216;-0.0178569;-0.0893562;-0.00389793
3.92214;-0.015957;-0.0768575;-0.00320959
3.93212;-0.0139771;-0.0699385;-0.00349773
3.9421;-0.0122186;-0.0625259;-0.00265732
3.95208;-0.0102871;-0.053074;-0.00368983
3.96206;-0.00847721;-0.0441561;-0.00336167
3.97204;-0.00647852;-0.037318;-0.00270534
3.98202;-0.00447091;-0.0204859;-0.00192096
3.992;-0.00260663;-0.0113253;-0.0012086
4.00198;-0.000640537;-0.0083392;-0.00225712
4.01196;0.00114367;0.0051063;-0.00304151
4.02194;0.00292294;0.0167917;-0.00370584
4.03192;0.00490188;0.0215945;-0.00345771
4.0419;0.00666929;0.0290638;-0.00372184
4.05188;0.0086502;0.0372857;-0.00247323
4.06186;0.0105095;0.0497237;-0.00299348
4.07184;0.0125171;0.0526167;-0.00393795
4.08182;0.0144674;0.0695906;-0.00388993
4.0918;0.0161933;0.0779055;-0.00336967
4.10178;0.0181238;0.0833395;-0.00232916
4.11176;0.0200117;0.0974284;-0.00267333
4.12174;0.0218542;0.101552;-0.00336967
4.13172;0.0237056;0.111647;-0.00337767
4.1417;0.0256579;0.119606;-0.00358578
4.15168;0.0274263;0.134738;-0.00364981
4.16166;0.0293677;0.143579;-0.00157679
4.17164;0.0313407;0.151854;-0.00216107
4.18162;0.0331082;0.161124;-0.00236918
4.1916;0.0348805;0.168286;-0.00284141
4.20158;0.036988;0.174011;-0.00280939
4.21156;0.0389729;0.183742;-0.00304951
4.22154;0.0407214;0.194881;-0.0024172
4.23152;0.0426046;0.207348;-0.00340169
4.2415;0.0444725;0.214085;-0.00352175
4.25148;0.0462679;0.216431;-0.00275337
4.26146;0.0452536;0.217091;-0.00208103
4.27144;0.0434409;0.208833;-0.00137669
4.28142;0.0415606;0.198782;-0.0018009
4.2914;0.0395126;0.18933;-0.00341769
4.30138;0.0378162;0.180938;-0.00272935
4.31136;0.0358819;0.176807;-0.00332965
4.32134;0.0338397;0.16801;-0.00265732
4.33132;0.0319279;0.156034;-0.00185692
4.3413;0.0300123;0.145764;-0.00186493
4.35128;0.0282854;0.130551;-0.000576288
4.36126;0.0265347;0.122875;-0.0024252
4.37124;0.0245479;0.115819;-0.0018169
4.38122;0.022567;0.110469;-0.00153677
4.3912;0.0207907;0.102365;-0.00227313
4.40118;0.0188513;0.0961092;-0.00165682
4.41116;0.0170473;0.0826435;-0.00225712
4.42114;0.0152354;0.0732565;-0.0028174
4.43112;0.0130934;0.0605514;-0.00325761
4.4411;0.0113003;0.0471989;-0.00230514
4.45108;0.00949831;0.0405227;-0.00295346
4.46106;0.00763405;0.0400128;-0.00175287
4.47104;0.00566697;0.0318597;-0.0012006
4.48102;0.00367419;0.0228448;-0.00168084
4.491;0.00187219;0.00325719;-0.00164082
4.50098;0.000220431;-0.0146027;-0.00268133
4.51096;-0.00163989;-0.0131501;-0.00168884
4.52094;-0.00378292;-0.0212506;-0.00155277
4.53092;-0.00562447;-0.0316858;-0.00336167
4.5409;-0.00753323;-0.0330534;-0.00291345
4.55088;-0.00938365;-0.0441602;-0.00288143
4.56086;-0.0111807;-0.0615144;-0.00291345
4.57084;-0.0135392;-0.060078;-0.00319358
4.58082;-0.015525;-0.0792407;-0.00197698
4.5908;-0.0170997;-0.107083;-0.00367382
4.60078;-0.0185389;-0.0915978;-0.00356977
4.61076;-0.0210003;-0.0797303;-0.00305752
4.62074;-0.0227845;-0.123802;-0.0038259
4.63072;-0.0245064;-0.128495;-0.00396997
4.6407;-0.0264152;-0.108665;-0.00317758
4.65068;-0.0287461;-0.137255;-0.00213706
4.66066;-0.0304046;-0.160614;-0.00389793
4.67064;-0.0323361;-0.149009;-0.00391394
4.68062;-0.0340511;-0.164814;-0.00352975
4.6906;-0.0360052;-0.179356;-0.00397797
4.70058;-0.0377916;-0.180659;-0.00372985
4.71056;-0.0397081;-0.180716;-0.00347372
4.72054;-0.0415489;-0.194946;-0.00252125
4.73052;-0.043665;-0.20339;-0.00354576
4.7405;-0.0455712;-0.215104;-0.00368182
4.75048;-0.0470538;-0.221659;-0.00391394
4.76046;-0.0465596;-0.217354;-0.00390593
4.77044;-0.0449413;-0.201557;-0.00355376
4.78042;-0.0428537;-0.199672;-0.0030175
4.7904;-0.0407322;-0.196071;-0.00390593
4.80038;-0.0389344;-0.184296;-0.00308153
4.81036;-0.0371698;-0.179862;-0.00305752
4.82034;-0.0354352;-0.169459;-0.00395396
4.83032;-0.0334907;-0.159416;-0.0038339
4.8403;-0.0314466;-0.156038;-0.00344971
4.85028;-0.0294192;-0.146359;-0.00328163
4.86026;-0.0275717;-0.134783;-0.00388192
4.87024;-0.0259338;-0.114787;-0.00279339
4.88022;-0.024196;-0.118307;-0.00317758
4.8902;-0.0219532;-0.116555;-0.00377787
4.90018;-0.0198151;-0.100002;-0.00364981
4.91016;-0.0182029;-0.0878389;-0.00368182
4.92014;-0.0165452;-0.0785326;-0.00295346
4.93012;-0.0148133;-0.0704605;-0.00381789
4.9401;-0.0125122;-0.0674946;-0.00334566
4.95008;-0.0103701;-0.0605271;-0.00295346
4.96006;-0.00866998;-0.0412672;-0.00373785
