t;vds;corrente;vg
0.000499;-0.0399301;-0.0274594;0.186974
0.000998;-0.0403902;-0.0283701;0.190587
0.001497;-0.0407984;-0.0282045;0.190587
0.001996;-0.0412711;-0.0284404;0.190396
0.002495;-0.0417472;-0.0288461;0.190587
0.002994;-0.0423125;-0.0289703;0.190587
0.003493;-0.0428079;-0.02902;0.190587
0.003992;-0.0433399;-0.0289206;0.190587
0.004491;-0.0438243;-0.0290158;0.190587
0.00499;-0.0442634;-0.0290448;0.190587
0.005489;-0.0447756;-0.0294133;0.190587
0.005988;-0.0452644;-0.0294257;0.190523
0.006487;-0.0457016;-0.0296824;0.190587
0.006986;-0.0462192;-0.0308623;0.190587
0.007485;-0.04672;-0.0309865;0.190587
0.007984;-0.0472569;-0.0309865;0.190587
0.008483;-0.0476919;-0.0309989;0.190587
0.008982;-0.0482258;-0.0310858;0.190587
0.009481;-0.0487413;-0.0313797;0.190587
0.00998;-0.0487433;-0.0313301;0.190587
0.010479;-0.0483067;-0.0314377;0.190587
0.010978;-0.0478487;-0.0311189;0.190587
0.011477;-0.0473526;-0.0309865;0.190587
0.011976;-0.0468127;-0.0309741;0.190587
0.012475;-0.0463969;-0.0309865;0.190587
0.012974;-0.0459128;-0.0309161;0.190587
0.013473;-0.0454569;-0.0302329;0.190587
0.013972;-0.0449484;-0.030295;0.19046
0.014471;-0.0445338;-0.029997;0.190587
0.01497;-0.0439922;-0.0294298;0.190587
0.015469;-0.0434474;-0.0292973;0.190587
0.015968;-0.0429954;-0.029256;0.190587
0.016467;-0.0424636;-0.028991;0.190587
0.016966;-0.0419109;-0.0289206;0.190587
0.017465;-0.041431;-0.0284694;0.190587
0.017964;-0.0409781;-0.028726;0.190237
0.018463;-0.0405008;-0.0286267;0.188741
0.018962;-0.0399478;-0.0276539;0.190396
0.019461;-0.0395669;-0.0274345;0.189664
0.01996;-0.0390686;-0.027269;0.189664
0.020459;-0.0385426;-0.0269005;0.190237
0.020958;-0.0381617;-0.0269419;0.1903
0.021457;-0.0376259;-0.0269958;0.190141
0.021956;-0.0370999;-0.0267101;0.190364
0.022455;-0.0367059;-0.0267266;0.190269
0.022954;-0.036177;-0.0265859;0.19046
0.023453;-0.0355206;-0.0253148;0.18995
0.023952;-0.0351506;-0.025054;0.190587
0.024451;-0.0346908;-0.025054;0.190109
0.02495;-0.0341697;-0.0247766;0.190587
0.025449;-0.0337158;-0.0247973;0.190491
0.025948;-0.0332992;-0.0247269;0.190587
0.026447;-0.032793;-0.0244123;0.189791
0.026946;-0.032281;-0.0243875;0.189632
0.027445;-0.0317261;-0.0245531;0.190078
0.027944;-0.0312536;-0.0238949;0.190587
0.028443;-0.0306701;-0.0236755;0.190587
0.028942;-0.0301581;-0.0229552;0.190555
0.029441;-0.0297891;-0.0227441;0.190587
0.02994;-0.0292678;-0.0227772;0.190396
0.030439;-0.0287548;-0.022653;0.190587
0.030938;-0.0283509;-0.0225868;0.1903
0.031437;-0.0278291;-0.0211915;0.190587
0.031936;-0.0272943;-0.0211958;0.190491
0.032435;-0.0268609;-0.0220982;0.190141
0.032934;-0.0264139;-0.0216884;0.190587
0.033433;-0.025791;-0.0212082;0.190173
0.033932;-0.0253491;-0.0207651;0.190587
0.034431;-0.0249957;-0.0202643;0.190587
0.03493;-0.0243749;-0.0200655;0.190587
0.035429;-0.0239151;-0.0188568;0.190587
0.035928;-0.0234531;-0.0186125;0.190587
0.036427;-0.0229637;-0.0185877;0.190587
0.036926;-0.0224001;-0.0185711;0.190332
0.037425;-0.0220518;-0.0186498;0.190396
0.037924;-0.0215841;-0.0186291;0.18995
0.038423;-0.0210629;-0.0181986;0.190587
0.038922;-0.0205626;-0.0179626;0.190587
0.039421;-0.0200929;-0.017383;0.190587
0.03992;-0.0195669;-0.0171926;0.190587
0.040419;-0.0191406;-0.0166337;0.190491
0.040918;-0.0186639;-0.0165633;0.190587
0.041417;-0.0182967;-0.0165674;0.190269
0.041916;-0.0176819;-0.016555;0.190237
0.042415;-0.0171984;-0.0163729;0.190523
0.042914;-0.0168007;-0.0162114;0.190587
0.043413;-0.0163358;-0.0163108;0.190396
0.043912;-0.0158897;-0.0156029;0.189855
0.044411;-0.0155038;-0.0151143;0.189887
0.04491;-0.0150184;-0.0149364;0.190269
0.045409;-0.0144805;-0.0146218;0.189123
0.045908;-0.014064;-0.0144769;0.189377
0.046407;-0.0135804;-0.0145431;0.189759
0.046906;-0.0130051;-0.0143858;0.19046
0.047405;-0.012482;-0.0139428;0.190491
0.047904;-0.0120114;-0.0139056;0.1896
0.048403;-0.0115308;-0.0131107;0.189664
0.048902;-0.0109494;-0.0126802;0.189791
0.049401;-0.0104253;-0.0125518;0.188422
0.0499;-0.010005;-0.0123945;0.189346
0.050399;-0.00943558;-0.0123407;0.190555
0.050898;-0.00902597;-0.011935;0.189823
0.051397;-0.00858488;-0.0120261;0.190237
0.051896;-0.00802035;-0.011401;0.189855
0.052395;-0.00750428;-0.0107013;0.189409
0.052894;-0.00709271;-0.0103991;0.188359
0.053393;-0.00648182;-0.0103412;0.189759
0.053892;-0.00597657;-0.0101301;0.190332
0.054391;-0.00557192;-0.00991483;0.190046
0.05489;-0.00497783;-0.00979061;0.190555
0.055389;-0.00446857;-0.00977821;0.190587
0.055888;-0.00391001;-0.00920279;0.190555
0.056387;-0.00351133;-0.00884672;0.190587
0.056886;-0.00300703;-0.00883848;0.19046
0.057385;-0.00256589;-0.00834996;0.190141
0.057884;-0.00207145;-0.00826302;0.190428
0.058383;-0.00162737;-0.0081471;0.190587
0.058882;-0.00115366;-0.00796909;0.190587
0.059381;-0.000672063;-0.00818022;0.190364
0.05988;-0.000179612;-0.00760892;0.190491
0.060379;0.000333564;-0.00743505;0.190587
0.060878;0.000782593;-0.00721565;0.190587
0.061377;0.00126123;-0.00679339;0.190587
0.061876;0.00175763;-0.00685134;0.18995
0.062375;0.00220568;-0.00643736;0.190587
0.062874;0.00260538;-0.00619726;0.190587
0.063373;0.00314716;-0.00602753;0.190491
0.063872;0.00364948;-0.00592819;0.190587
0.064371;0.00411033;-0.00550593;0.190587
0.06487;0.00468175;-0.00559286;0.190269
0.065369;0.00523343;-0.00418533;0.190587
0.065868;0.00569727;-0.00430125;0.190587
0.066367;0.00616502;-0.00426813;0.19046
0.066866;0.00667231;-0.00414807;0.189887
0.067365;0.00713716;-0.00402387;0.190364
0.067864;0.00765916;-0.0040156;0.190078
0.068363;0.00815164;-0.00335738;0.190205
0.068862;0.00871116;-0.00286887;0.190332
0.069361;0.00912667;-0.00274056;0.190587
0.06986;0.00959936;-0.00243006;0.190364
0.070359;0.0101678;-0.00222721;0.190587
0.070858;0.010527;-0.00221893;0.190523
0.071357;0.0110728;-0.00216511;0.190396
0.071856;0.0116719;-0.00204506;0.190587
0.072355;0.0121376;-0.00168903;0.190587
0.072854;0.0126093;-0.000285646;0.190587
0.073353;0.0130288;-0.00106807;0.190428
0.073852;0.0136012;-0.000256668;0.190587
0.074351;0.0140078;-6.2097e-05;0.190587
0.07485;0.014523;-3.31184e-05;0.190587
0.075349;0.0150528;0.000219409;0.190587
0.075848;0.0155255;0.000447099;0.190587
0.076347;0.0159085;0.000890056;0.190587
0.076846;0.0164355;0.000380862;0.190587
0.077345;0.0168609;0.00139925;0.190587
0.077844;0.0173267;0.00195398;0.190587
0.078343;0.0177726;0.00203678;0.190364
0.078842;0.018276;0.00202022;0.190587
0.079341;0.018731;0.00239281;0.190587
0.07984;0.0191839;0.00307587;0.190587
0.080339;0.0197219;0.00336979;0.190587
0.080838;0.0201305;0.00332839;0.190587
0.081337;0.0207106;0.00357679;0.190587
0.081836;0.0211952;0.0039328;0.190587
0.082335;0.0216512;0.00406941;0.190587
0.082834;0.0221031;0.00416877;0.190587
0.083333;0.022575;0.00430125;0.190587
0.083832;0.0230573;0.00452481;0.190587
0.084331;0.0235756;0.00474006;0.190587
0.08483;0.0239358;0.00504641;0.190269
0.085329;0.0245298;0.00592818;0.190587
0.085828;0.0250658;0.00615586;0.190587
0.086327;0.0255276;0.00620139;0.190555
0.086826;0.0259787;0.00618484;0.190587
0.087325;0.0264325;0.0061807;0.190587
0.087824;0.0269637;0.00630903;0.190587
0.088323;0.0275281;0.00664021;0.190587
0.088822;0.0279878;0.00696726;0.190587
0.089321;0.028437;0.00796909;0.190587
0.08982;0.0288523;0.00723219;0.190587
0.090319;0.0293727;0.00779521;0.190587
0.090818;0.0298669;0.00793183;0.19046
0.091317;0.0303977;0.00823818;0.190587
0.091816;0.030925;0.00826302;0.190587
0.092315;0.0314242;0.00828786;0.190587
0.092814;0.0319079;0.0083955;0.188041
0.093313;0.0324525;0.00837894;0.190173
0.093812;0.0329488;0.00860662;0.189982
0.094311;0.0334198;0.00940976;0.190109
0.09481;0.0338805;0.00976993;0.190491
0.095309;0.0344442;0.0096209;0.189918
0.095808;0.0348575;0.00898335;0.190587
0.096307;0.035343;0.00933525;0.189568
0.096806;0.0357763;0.0101052;0.188868
0.097305;0.036322;0.0103577;0.189728
0.097804;0.0368108;0.0105772;0.189346
0.098303;0.0373188;0.010809;0.189823
0.098802;0.0378371;0.0108214;0.190491
0.099301;0.0383107;0.0120426;0.190141
0.0998;0.0387962;0.0120592;0.189887
0.100299;0.0392383;0.0119433;0.188741
0.100798;0.0398136;0.0124442;0.189855
0.101297;0.0401523;0.0124235;0.188964
0.101796;0.040678;0.0127795;0.18995
0.102295;0.0412011;0.0137482;0.190396
0.102794;0.0416346;0.0131273;0.190587
0.103293;0.042138;0.0143444;0.190587
0.103792;0.0426598;0.014481;0.190332
0.104291;0.0431493;0.0145017;0.190205
0.10479;0.0436556;0.0145472;0.190555
0.105289;0.0440916;0.0146093;0.190491
0.105788;0.0445684;0.0149902;0.190587
0.106287;0.0450493;0.0156153;0.190587
0.106786;0.045531;0.016319;0.190587
0.107285;0.0460229;0.0164226;0.1903
0.107784;0.0464425;0.016526;0.189059
0.108283;0.0468779;0.016584;0.189823
0.108782;0.0473977;0.0167579;0.190555
0.109281;0.0478142;0.017296;0.190587
0.10978;0.0482277;0.0171884;0.190078
0.110279;0.0479296;0.0167579;0.190587
0.110778;0.0474533;0.0167413;0.190205
0.111277;0.0469953;0.0169152;0.189855
0.111776;0.0465105;0.0165302;0.190396
0.112275;0.0460864;0.0166502;0.19046
0.112774;0.0455841;0.0162983;0.190587
0.113273;0.045134;0.0155946;0.190587
0.113772;0.0446916;0.0152303;0.190587
0.114271;0.0441521;0.0147128;0.190491
0.11477;0.0436684;0.0146135;0.190555
0.115269;0.0432598;0.0144396;0.190141
0.115768;0.0426838;0.0140587;0.189982
0.116267;0.0421141;0.0140463;0.189887
0.116766;0.0417925;0.0131769;0.190587
0.117265;0.0412642;0.0130776;0.190587
0.117764;0.0407356;0.0124193;0.190332
0.118263;0.0402283;0.0123159;0.190428
0.118762;0.039782;0.0121834;0.190587
0.119261;0.0392809;0.012291;0.190587
0.11976;0.0388406;0.0118853;0.190587
0.120259;0.0383512;0.01078;0.190587
0.120758;0.0378826;0.0110739;0.190587
0.121257;0.0374028;0.011372;0.190587
0.121756;0.0369183;0.0108048;0.190587
0.122255;0.0364068;0.0104116;0.190587
0.122754;0.03581;0.0103495;0.190587
0.123253;0.0353756;0.0101507;0.190587
0.123752;0.0349533;0.00969543;0.190587
0.124251;0.0344925;0.00957537;0.190587
0.12475;0.0339051;0.00890881;0.190587
0.125249;0.0334731;0.00846174;0.190587
0.125748;0.0330337;0.00836238;0.190587
0.126247;0.0325029;0.00826302;0.190587
0.126746;0.0320886;0.00813468;0.190587
0.127245;0.0316018;0.00820092;0.190587
0.127744;0.0309703;0.00758408;0.190587
0.128243;0.0304531;0.00775796;0.190587
0.128742;0.0299874;0.00736467;0.190587
0.129241;0.0295088;0.00700865;0.190587
0.12974;0.0289728;0.00728187;0.190587
0.130239;0.0285564;0.00711628;0.190587
0.130738;0.0280697;0.00640839;0.190587
0.131237;0.0275183;0.00664021;0.190587
0.131736;0.0270782;0.00658224;0.190587
0.132235;0.0265776;0.00616;0.190587
0.132734;0.0260645;0.00608135;0.190587
0.133233;0.0255316;0.00611033;0.190587
0.133732;0.0251389;0.0057419;0.190587
0.134231;0.0246117;0.00518716;0.190587
0.13473;0.0240887;0.00477733;0.190587
0.135229;0.0235963;0.00461587;0.190587
0.135728;0.0231501;0.00418947;0.190523
0.136227;0.0226499;0.00422673;0.190587
0.136726;0.0221879;0.00413979;0.190587
0.137225;0.021738;0.00380447;0.190587
0.137724;0.0211814;0.00228103;0.190587
0.138223;0.0207343;0.00305517;0.190587
0.138722;0.0202657;0.00243421;0.190587
0.139221;0.0198373;0.00218581;0.190587
0.13972;0.0192876;0.00207404;0.190587
0.140219;0.01888;0.00197054;0.190587
0.140718;0.0184289;0.0018836;0.190587
0.141217;0.0178694;0.00189188;0.190587
0.141716;0.0174027;0.0011757;0.190587
0.142215;0.0169586;0.000322905;0.190587
0.142714;0.0164947;0.00041812;0.190587
0.143213;0.0161039;0.000380862;0.190587
0.143712;0.0156281;0.000264947;0.190587
0.144211;0.0151171;0;0.190587
0.14471;0.0146434;7.45164e-05;0.190587
0.145209;0.0142229;-1.65592e-05;0.18995
0.145708;0.01369;-0.000169732;0.190587
0.146207;0.0131639;-0.000302205;0.190587
0.146706;0.0127159;-0.000877636;0.190587
0.147205;0.0122758;-0.00101425;0.190587
0.147704;0.011658;-0.00192086;0.190587
0.148203;0.0112692;-0.00128333;0.190587
0.148702;0.0107668;-0.00169317;0.190587
0.149201;0.0102319;-0.0018836;0.190523
0.1497;0.00978099;-0.00215269;0.190587
0.150199;0.00927864;-0.00267431;0.190587
0.150698;0.00881083;-0.00247561;0.190587
0.151197;0.00820393;-0.00331183;0.190587
0.151696;0.0077628;-0.00351054;0.190587
0.152195;0.00731281;-0.00396178;0.190587
0.152694;0.00677789;-0.00411495;0.190141
0.153193;0.00636834;-0.00413565;0.1896
0.153692;0.00585517;-0.00413565;0.190587
0.154191;0.00528473;-0.00459518;0.190555
0.15469;0.00489592;-0.00498846;0.190587
0.155189;0.0043156;-0.00572947;0.190587
0.155688;0.00378665;-0.00591989;0.190587
0.156187;0.00330014;-0.00614758;0.189918
0.156686;0.00284418;-0.00624279;0.190205
0.157185;0.00228364;-0.00648289;0.189918
0.157684;0.00179119;-0.00653257;0.190587
0.158183;0.00138361;-0.00704592;0.190078
0.158682;0.00095727;-0.00755098;0.190587
0.159181;0.000432252;-0.008085;0.190428
0.15968;-0.000106583;-0.00798151;0.190587
0.160179;-0.000572388;-0.00794425;0.190587
0.160678;-0.00110925;-0.00815539;0.190587
0.161177;-0.00161157;-0.00829614;0.190587
0.161676;-0.00202507;-0.00834168;0.190587
0.162175;-0.00241292;-0.00861905;0.190523
0.162674;-0.00296756;-0.00961262;0.190587
0.163173;-0.00342941;-0.00937251;0.190491
0.163672;-0.00395836;-0.0102584;0.190587
0.164171;-0.00435212;-0.0103453;0.190332
0.16467;-0.00493341;-0.0103619;0.190587
0.165169;-0.00549002;-0.010366;0.190587
0.165668;-0.00588181;-0.0104281;0.190587
0.166167;-0.00647295;-0.0105233;0.190587
0.166666;-0.00701379;-0.0110946;0.190587
0.167165;-0.00754075;-0.0110574;0.190523
0.167664;-0.00799569;-0.0121337;0.190523
0.168163;-0.00846151;-0.0122248;0.190587
0.168662;-0.00887794;-0.0119309;0.190587
0.169161;-0.00939806;-0.0122496;0.190587
0.16966;-0.00988656;-0.0124193;0.190587
0.170159;-0.0103474;-0.0128085;0.190364
0.170658;-0.0108557;-0.0130445;0.190587
0.171157;-0.011436;-0.0133632;0.190173
0.171656;-0.0118367;-0.0134212;0.190269
0.172155;-0.0123251;-0.0138849;0.190587
0.172654;-0.0128946;-0.013831;0.190587
0.173153;-0.0134719;-0.0142202;0.190587
0.173652;-0.0138835;-0.0143568;0.190587
0.174151;-0.0143957;-0.0145141;0.190587
0.17465;-0.014892;-0.0147418;0.190587
0.175149;-0.0153351;-0.0149653;0.190587
0.175648;-0.0157999;-0.0147625;0.190587
0.176147;-0.0163043;-0.0158181;0.190587
0.176646;-0.0167553;-0.0164764;0.190587
0.177145;-0.0171836;-0.0166088;0.190587
0.177644;-0.01767;-0.0166006;0.190587
0.178143;-0.0181655;-0.0167413;0.190587
0.178642;-0.018581;-0.0171305;0.190587
0.179141;-0.0190942;-0.0178301;0.190587
0.17964;-0.0196093;-0.0183807;0.190587
0.180139;-0.0201196;-0.0183269;0.190587
0.180638;-0.0205645;-0.0182524;0.190587
0.181137;-0.0210897;-0.0185835;0.190587
0.181636;-0.0215041;-0.0187036;0.190587
0.182135;-0.0218711;-0.018836;0.190587
0.182634;-0.0224191;-0.0195108;0.190555
0.183133;-0.0229212;-0.0199331;0.190587
0.183632;-0.0233101;-0.0207196;0.190428
0.184131;-0.0238509;-0.0204961;0.190587
0.18463;-0.0243373;-0.0203181;0.190587
0.185129;-0.0248082;-0.0203967;0.190587
0.185628;-0.0252562;-0.0206244;0.190587
0.186127;-0.025809;-0.0209639;0.190587
0.186626;-0.0262835;-0.0211254;0.190587
0.187125;-0.026786;-0.02091;0.190205
0.187624;-0.0272429;-0.0214069;0.190587
0.188123;-0.0277737;-0.0226075;0.190587
0.188622;-0.0281754;-0.0223839;0.190587
0.189121;-0.0286629;-0.0226448;0.190587
0.18962;-0.0292216;-0.0227027;0.190587
0.190119;-0.0296864;-0.0228476;0.190587
0.190618;-0.0301018;-0.0231705;0.190587
0.191117;-0.0306476;-0.023245;0.190587
0.191616;-0.0310888;-0.0237169;0.190587
0.192115;-0.0316562;-0.0244785;0.190587
0.192614;-0.0321684;-0.0243958;0.190587
0.193113;-0.0327761;-0.024789;0.190587
0.193612;-0.0332451;-0.0247352;0.190587
0.194111;-0.0337069;-0.0249505;0.190587
0.19461;-0.034228;-0.0248677;0.190587
0.195109;-0.0345409;-0.0252403;0.190587
0.195608;-0.0350234;-0.0252569;0.190587
0.196107;-0.0355858;-0.0263665;0.190587
0.196606;-0.0360576;-0.0261719;0.190587
0.197105;-0.0365076;-0.0263624;0.190587
0.197604;-0.0370989;-0.0267681;0.190587
0.198103;-0.0375971;-0.0267888;0.190587
0.198602;-0.0380207;-0.0269295;0.190587
0.199101;-0.0385407;-0.0269833;0.190587
0.1996;-0.0390676;-0.0269668;0.190587
0.200099;-0.039497;-0.0279437;0.190587
0.200598;-0.0399271;-0.0285894;0.190587
0.201097;-0.0404592;-0.0287012;0.190587
0.201596;-0.0408902;-0.0288047;0.190587
0.202095;-0.0413195;-0.0288171;0.190587
0.202594;-0.041917;-0.0289164;0.190587
0.203093;-0.0424702;-0.0290365;0.190587
0.203592;-0.0429303;-0.0289206;0.190587
0.204091;-0.043488;-0.02914;0.190587
0.20459;-0.0439742;-0.0295374;0.190523
0.205089;-0.0444549;-0.0297321;0.190587
0.205588;-0.044905;-0.0300011;0.190587
0.206087;-0.0454629;-0.0307919;0.190173
0.206586;-0.0459501;-0.0306387;0.190587
0.207085;-0.0463852;-0.0309451;0.190428
0.207584;-0.0468375;-0.0309865;0.190205
0.208083;-0.0473347;-0.03121;0.190587
0.208582;-0.0478073;-0.0311521;0.190555
0.209081;-0.0482979;-0.0313011;0.189568
0.20958;-0.0487875;-0.0321124;0.190587
0.210079;-0.0487274;-0.0313466;0.190555
0.210578;-0.0482079;-0.0315039;0.190269
0.211077;-0.0477757;-0.0314419;0.190078
0.211576;-0.0473181;-0.0310569;0.190587
0.212075;-0.0467011;-0.0310155;0.190587
0.212574;-0.0462903;-0.0310196;0.190428
0.213073;-0.0458842;-0.0308954;0.190587
0.213572;-0.0453413;-0.0307298;0.190587
0.214071;-0.0447943;-0.0299101;0.190587
0.21457;-0.0443631;-0.0298314;0.190587
0.215069;-0.0438372;-0.0296368;0.190523
0.215568;-0.0433783;-0.0290945;0.190587
0.216067;-0.0429746;-0.0289247;0.190587
0.216566;-0.0424418;-0.028904;0.190587
0.217065;-0.0418941;-0.0289206;0.190269
0.217564;-0.0413856;-0.0289247;0.189887
0.218063;-0.0409001;-0.0287798;0.19046
0.218562;-0.0403873;-0.0284735;0.190428
0.219061;-0.0399656;-0.0277367;0.190269
0.21956;-0.0394604;-0.0272607;0.190587
0.220059;-0.0389837;-0.0275297;0.190491
0.220558;-0.0384588;-0.0273476;0.190587
0.221057;-0.0380049;-0.0273145;0.190205
0.221556;-0.0375114;-0.026677;0.190046
0.222055;-0.0369982;-0.0265279;0.188327
0.222554;-0.036468;-0.0258738;0.190587
0.223053;-0.0360053;-0.0258944;0.187149
0.223552;-0.0354407;-0.0253397;0.19046
0.224051;-0.0350214;-0.0256171;0.189664
0.22455;-0.0345705;-0.0253024;0.190396
0.225049;-0.0340986;-0.0249215;0.190173
0.225548;-0.0336615;-0.024789;0.190587
0.226047;-0.0331748;-0.0248014;0.189282
0.226546;-0.032647;-0.024698;0.188932
0.227045;-0.0320402;-0.0245696;0.188104
0.227544;-0.031507;-0.0236714;0.189377
0.228043;-0.030997;-0.023096;0.190046
0.228542;-0.0305261;-0.0231995;0.189728
0.229041;-0.0300791;-0.0228766;0.188709
0.22954;-0.029648;-0.0227483;0.1903
0.230039;-0.0292234;-0.0228352;0.1896
0.230538;-0.0287045;-0.0226323;0.190587
0.231037;-0.0282365;-0.0226075;0.18925
0.231536;-0.0277945;-0.0223343;0.190428
0.232035;-0.0272618;-0.0221355;0.190109
0.232534;-0.0267523;-0.0217712;0.190396
0.233033;-0.0262521;-0.0214813;0.190428
0.233532;-0.0257526;-0.0209763;0.190587
0.234031;-0.0252089;-0.0213323;0.190332
0.23453;-0.0247558;-0.0207238;0.189409
0.235029;-0.0243058;-0.0206575;0.190587
0.235528;-0.0237908;-0.0200821;0.190587
0.236027;-0.0233248;-0.0201483;0.190587
0.236526;-0.0228661;-0.0195316;0.190587
0.237025;-0.0223419;-0.0193991;0.190587
0.237524;-0.0218772;-0.018745;0.190587
0.238023;-0.0214687;-0.018596;0.190587
0.238522;-0.0210027;-0.0188651;0.190587
0.239021;-0.0204719;-0.0185297;0.190269
0.23952;-0.02001;-0.0184345;0.190587
0.240019;-0.0195383;-0.0183145;0.18995
0.240518;-0.0190182;-0.0175569;0.190396
0.241017;-0.0185997;-0.0171388;0.190587
0.241516;-0.0181832;-0.017056;0.190078
0.242015;-0.0175911;-0.016526;0.190587
0.242514;-0.0171718;-0.0165053;0.190587
0.243013;-0.0167168;-0.0163315;0.190587
0.243512;-0.0162322;-0.0157436;0.190587
0.244011;-0.0157525;-0.0155987;0.190428
0.24451;-0.0153587;-0.0151144;0.190587
0.245009;-0.0148941;-0.0146135;0.189155
0.245508;-0.0143739;-0.0144976;0.190205
0.246007;-0.013845;-0.0142864;0.190141
0.246506;-0.0134354;-0.0141953;0.190587
0.247005;-0.0128047;-0.0141622;0.190587
0.247504;-0.0122541;-0.0143361;0.190587
0.248003;-0.0118633;-0.0137358;0.190587
0.248502;-0.0113837;-0.0131397;0.190141
0.249001;-0.0108675;-0.0131604;0.190587
0.2495;-0.0103444;-0.0124814;0.190587
0.249999;-0.00998625;-0.012705;0.190364
0.250498;-0.00940004;-0.0123986;0.190332
0.250997;-0.00892037;-0.0124235;0.189314
0.251496;-0.00850989;-0.0123945;0.190523
0.251995;-0.0079631;-0.0116245;0.190491
0.252494;-0.00745494;-0.0110739;0.190587
