t;vds;corrente;vg
0.000499;-0.0382644;-0.0262293;0.702257
0.000998;-0.0386887;-0.0258613;0.716529
0.001497;-0.0391633;-0.026826;0.716529
0.001996;-0.039709;-0.0268964;0.716529
0.002495;-0.0400417;-0.0269916;0.716529
0.002994;-0.0405735;-0.0271448;0.716529
0.003493;-0.04106;-0.0275463;0.716529
0.003992;-0.0414953;-0.0277367;0.715811
0.004491;-0.0420886;-0.0286184;0.71613
0.00499;-0.0426193;-0.0287302;0.716529
0.005489;-0.0431888;-0.0284776;0.715332
0.005988;-0.0436142;-0.0289289;0.715652
0.006487;-0.0440995;-0.0290034;0.715971
0.006986;-0.0445931;-0.029169;0.715891
0.007485;-0.0450947;-0.0305104;0.71613
0.007984;-0.0456444;-0.0307298;0.715971
0.008483;-0.0460634;-0.0308995;0.716369
0.008982;-0.0465047;-0.0309865;0.715652
0.009481;-0.046953;-0.0309658;0.714854
0.00998;-0.0474509;-0.031032;0.716529
0.010479;-0.0479248;-0.0310444;0.715173
0.010978;-0.0483463;-0.0310113;0.71605
0.011477;-0.0488074;-0.0312017;0.715492
0.011976;-0.0485299;-0.0310031;0.715652
0.012475;-0.047978;-0.031061;0.716529
0.012974;-0.0474533;-0.0309865;0.716529
0.013473;-0.0470268;-0.0310196;0.715731
0.013972;-0.0465223;-0.0309865;0.716529
0.014471;-0.0460884;-0.0309865;0.716369
0.01497;-0.0456335;-0.0309409;0.715971
0.015469;-0.0451428;-0.030382;0.716529
0.015968;-0.0446117;-0.0295126;0.716529
0.016467;-0.0442161;-0.0297403;0.714375
0.016966;-0.0437286;-0.0296989;0.714216
0.017465;-0.0432183;-0.0289827;0.714455
0.017964;-0.0427518;-0.0289578;0.713976
0.018463;-0.0422128;-0.0288833;0.71605
0.018962;-0.0416443;-0.0285356;0.716529
0.019461;-0.0410836;-0.0279519;0.71605
0.01996;-0.0407217;-0.027451;0.71613
0.020459;-0.0402292;-0.0271447;0.71621
0.020958;-0.0397089;-0.0272027;0.715173
0.021457;-0.0392326;-0.0268467;0.715253
0.021956;-0.0387784;-0.0268012;0.71605
0.022455;-0.0382426;-0.0265859;0.715731
0.022954;-0.0377444;-0.0266397;0.716529
0.023453;-0.0372597;-0.025439;0.71613
0.023952;-0.0367237;-0.0252445;0.716369
0.024451;-0.0362618;-0.0252486;0.71613
0.02495;-0.0358732;-0.0248221;0.716449
0.025449;-0.0353174;-0.0248263;0.716529
0.025948;-0.0347757;-0.0247807;0.716529
0.026447;-0.034298;-0.0244372;0.715652
0.026946;-0.0338963;-0.0243503;0.715093
0.027445;-0.0334237;-0.0236631;0.715332
0.027944;-0.0328838;-0.0235431;0.714934
0.028443;-0.0324871;-0.0228145;0.715811
0.028942;-0.0319305;-0.0231001;0.714375
0.029441;-0.0313236;-0.0228683;0.716529
0.02994;-0.0308913;-0.0227234;0.715971
0.030439;-0.0304087;-0.0226861;0.716449
0.030938;-0.0299578;-0.0226241;0.716449
0.031437;-0.0295058;-0.0222556;0.716529
0.031936;-0.0290083;-0.0223839;0.714934
0.032435;-0.0284023;-0.0215145;0.715572
0.032934;-0.0279415;-0.0211502;0.715253
0.033433;-0.0275074;-0.0207072;0.715332
0.033932;-0.0270317;-0.020612;0.716449
0.034431;-0.0264839;-0.0206617;0.714934
0.03493;-0.0260467;-0.0204381;0.714774
0.035429;-0.0255681;-0.0205126;0.71613
0.035928;-0.025049;-0.0205954;0.715332
0.036427;-0.024587;-0.0202932;0.71629
0.036926;-0.024073;-0.0195108;0.715811
0.037425;-0.0236151;-0.0191631;0.715173
0.037924;-0.0230968;-0.0185794;0.716449
0.038423;-0.0226934;-0.0185918;0.715332
0.038922;-0.0222146;-0.018538;0.715093
0.039421;-0.0216196;-0.0180123;0.716529
0.03992;-0.0212584;-0.0182565;0.716449
0.040419;-0.0207451;-0.0176438;0.716529
0.040918;-0.02024;-0.0175279;0.715971
0.041417;-0.0197643;-0.0169732;0.714535
0.041916;-0.0192985;-0.0166461;0.715253
0.042415;-0.0187991;-0.016613;0.715651
0.042914;-0.0183154;-0.016526;0.712939
0.043413;-0.0178871;-0.0157767;0.715492
0.043912;-0.0174579;-0.0161824;0.716529
0.044411;-0.0169803;-0.0161493;0.715572
0.04491;-0.01655;-0.0160996;0.71613
0.045409;-0.0161374;-0.0155449;0.715412
0.045908;-0.015487;-0.0150937;0.716529
0.046407;-0.0151338;-0.0151392;0.71629
0.046906;-0.0146335;-0.01463;0.716529
0.047405;-0.014142;-0.0143071;0.715651
0.047904;-0.0137019;-0.0138642;0.714934
0.048403;-0.0131758;-0.0139056;0.715891
0.048902;-0.012633;-0.0135412;0.71605
0.049401;-0.0121248;-0.0132308;0.71613
0.0499;-0.0116561;-0.0123945;0.715652
0.050399;-0.011135;-0.0124193;0.716449
0.050898;-0.0106474;-0.0120799;0.716369
0.051397;-0.0101678;-0.0118439;0.715412
0.051896;-0.00963692;-0.0115127;0.71629
0.052395;-0.00917895;-0.0115127;0.716529
0.052894;-0.00874867;-0.0109621;0.716529
0.053393;-0.00823453;-0.0108669;0.716369
0.053892;-0.00772925;-0.0104323;0.715652
0.054391;-0.00727431;-0.0106558;0.714774
0.05489;-0.00672656;-0.0104281;0.716529
0.055389;-0.00620257;-0.010337;0.715811
0.055888;-0.00560942;-0.0102708;0.715173
0.056387;-0.00513769;-0.0103039;0.716529
0.056886;-0.00466597;-0.00972439;0.71629
0.057385;-0.0040906;-0.00943458;0.715652
0.057884;-0.00368304;-0.00888814;0.716369
0.058383;-0.00327547;-0.00880121;0.716529
0.058882;-0.00270305;-0.00841206;0.715652
0.059381;-0.00212771;-0.00826302;0.715173
0.05988;-0.00176849;-0.00832098;0.716529
0.060379;-0.00131452;-0.00817194;0.716529
0.060878;-0.000853648;-0.00759237;0.716529
0.061377;-0.000395737;-0.00667748;0.715891
0.061876;0.00010757;-0.00646634;0.715492
0.062375;0.000701668;-0.00625935;0.716529
0.062874;0.00117833;-0.00625107;0.715572
0.063373;0.00150401;-0.00619726;0.714854
0.063872;0.00202705;-0.00619726;0.715332
0.064371;0.00250273;-0.00606893;0.716369
0.06487;0.0029567;-0.00568393;0.716529
0.065369;0.00359027;-0.00538587;0.716529
0.065868;0.00407184;-0.00504643;0.715971
0.066367;0.00453668;-0.00455793;0.715492
0.066866;0.00501929;-0.00421431;0.716529
0.067365;0.00552161;-0.00407769;0.716529
0.067864;0.00607028;-0.00396592;0.716529
0.068363;0.00651242;-0.00333669;0.716529
0.068862;0.00700688;-0.00317936;0.715173
0.069361;0.0075733;-0.00301378;0.715253
0.06986;0.00798286;-0.00217339;0.716529
0.070359;0.00847532;-0.00229759;0.714375
0.070858;0.00896678;-0.00223549;0.716529
0.071357;0.00945035;-0.00209887;0.71629
0.071856;0.00993394;-0.00199124;0.716529
0.072355;0.0104737;-0.00191672;0.716529
0.072854;0.0108892;-0.00199124;0.716529
0.073353;0.0113758;-0.00115914;0.716529
0.073852;0.0119185;-0.000471938;0.715811
0.074351;0.0124544;-0.000372582;0.716529
0.07485;0.0128659;-0.000608551;0.71629
0.075349;0.0133623;-0.000372582;0.716529
0.075848;0.0139259;0.000128334;0.715811
0.076347;0.01437;0.00020699;0.716529
0.076846;0.0147628;0;0.716529
0.077345;0.0152788;6.2097e-05;0.716529
0.077844;0.0158078;0.00106807;0.716529
0.078343;0.0162509;0.00163522;0.71605
0.078842;0.0167257;0.00156898;0.71629
0.079341;0.0172339;0.0019457;0.715811
0.07984;0.017671;0.00215269;0.716529
0.080339;0.0180549;0.00234727;0.716529
0.080838;0.0185248;0.00264948;0.716529
0.081337;0.0190438;0.00265776;0.716529
0.081836;0.0195086;0.00313797;0.716529
0.082335;0.0200229;0.00331183;0.716529
0.082834;0.0205073;0.00401145;0.716529
0.083333;0.020991;0.00412323;0.716529
0.083832;0.0214311;0.00413151;0.716529
0.084331;0.0219856;0.00413151;0.714934
0.08483;0.0224773;0.00412323;0.716369
0.085329;0.0229399;0.00429711;0.715811
0.085828;0.0233585;0.00444199;0.714455
0.086327;0.0238045;0.0048353;0.713817
0.086826;0.0242386;0.00452066;0.715013
0.087325;0.0248783;0.00510438;0.716529
0.087824;0.025348;0.00584538;0.716529
0.088323;0.0258909;0.00613102;0.716529
0.088822;0.0263467;0.0061186;0.71629
0.089321;0.0268275;0.00619726;0.715971
0.08982;0.0272705;0.00618484;0.71621
0.090319;0.027749;0.00636699;0.71629
0.090818;0.0282416;0.00671059;0.715652
0.091317;0.0286994;0.0070873;0.716529
0.091816;0.0291406;0.00722392;0.71621
0.092315;0.0297219;0.00779522;0.715811
0.092814;0.0301718;0.00821748;0.715811
0.093313;0.0306782;0.0082713;0.716529
0.093812;0.0312268;0.00832098;0.715971
0.094311;0.0317648;0.00826302;0.715412
0.09481;0.032272;0.00884261;0.715253
0.095309;0.032709;0.0089337;0.716529
0.095808;0.0332629;0.00943043;0.714614
0.096307;0.033702;0.00988582;0.714854
0.096806;0.034145;0.010068;0.714295
0.097305;0.0347016;0.00991892;0.716529
0.097804;0.0352482;0.0104488;0.716529
0.098303;0.0356993;0.010453;0.714295
0.098802;0.0361602;0.0103826;0.71629
0.099301;0.0366824;0.0106227;0.713657
0.0998;0.0371028;0.0112312;0.713418
0.100299;0.0376001;0.0117073;0.71262
0.100798;0.0381499;0.0121585;0.715811
0.101297;0.0386542;0.0123241;0.714934
0.101796;0.0391406;0.0123945;0.71629
0.102295;0.0396183;0.0125435;0.716449
0.102794;0.0400032;0.0127298;0.715173
0.103293;0.0404681;0.0131894;0.714056
0.103792;0.0410146;0.0135909;0.715651
0.104291;0.0414508;0.0137648;0.714774
0.10479;0.0419298;0.014423;0.716529
0.105289;0.0424742;0.0144769;0.714295
0.105788;0.0429994;0.0145431;0.715332
0.106287;0.0434474;0.0146259;0.713577
0.106786;0.0439022;0.0146797;0.715013
0.107285;0.044455;0.0153379;0.715811
0.107784;0.0449722;0.015193;0.716529
0.108283;0.045298;0.0158844;0.714774
0.108782;0.0458199;0.0163066;0.716449
0.109281;0.0462913;0.0160168;0.714694
0.10978;0.0467753;0.016464;0.715971
0.110279;0.0471888;0.0165592;0.715492
0.110778;0.0477225;0.017056;0.716529
0.111277;0.0481863;0.0174534;0.715253
0.111776;0.0481595;0.0181282;0.715332
0.112275;0.0476939;0.0175072;0.715173
0.112774;0.0472331;0.0175114;0.715332
0.113273;0.046713;0.0168572;0.714934
0.113772;0.0462057;0.0166213;0.715173
0.114271;0.0457786;0.0163646;0.715652
0.11477;0.0454134;0.0159671;0.716529
0.115269;0.0449157;0.0149198;0.710626
0.115768;0.0443996;0.0145555;0.71262
0.116267;0.0439004;0.0144644;0.713099
0.116766;0.0434336;0.0145845;0.712301
0.117265;0.0429224;0.0143982;0.70919
0.117764;0.0424685;0.0142036;0.714694
0.118263;0.0419632;0.0139883;0.715013
0.118762;0.0414784;0.0139511;0.713817
0.119261;0.0410007;0.0137524;0.716449
0.11976;0.040487;0.0133384;0.714854
0.120259;0.0399971;0.0132887;0.715652
0.120758;0.0396271;0.0125311;0.714774
0.121257;0.039119;0.0122703;0.712939
0.121756;0.0385831;0.0122289;0.712461
0.122255;0.0381499;0.0121917;0.711663
0.122754;0.0376387;0.0117942;0.714136
0.123253;0.0371245;0.0110988;0.70911
0.123752;0.0366309;0.0112685;0.714854
0.124251;0.0361681;0.0105357;0.716449
0.12475;0.0356825;0.0105026;0.71613
0.125249;0.0351142;0.0103288;0.716369
0.125748;0.0346593;0.010159;0.712939
0.126247;0.0341459;0.0100887;0.713577
0.126746;0.0336527;0.00984445;0.716369
0.127245;0.0331392;0.0092897;0.714375
0.127744;0.0327743;0.00892953;0.715652
0.128243;0.0322366;0.00833754;0.71621
0.128742;0.0317439;0.00826302;0.715651
0.129241;0.0312309;0.00826302;0.716529
0.12974;0.0307195;0.00826302;0.715173
0.130239;0.0301798;0.00804775;0.715412
0.130738;0.0297033;0.00801877;0.715731
0.131237;0.0292461;0.00803947;0.716529
0.131736;0.0286581;0.00789871;0.714774
0.132235;0.0282454;0.00737709;0.71629
0.132734;0.0277413;0.00703349;0.71613
0.133233;0.0271897;0.00664021;0.716529
0.133732;0.0267276;0.00627591;0.716369
0.134231;0.026333;0.00626349;0.715093
0.13473;0.0258128;0.0061393;0.714295
0.135229;0.0252731;0.00619726;0.716529
0.135728;0.0247814;0.00606479;0.714216
0.136227;0.0243009;0.00603168;0.714934
0.136726;0.0237868;0.00604409;0.716529
0.137225;0.0232892;0.00501743;0.714774
0.137724;0.0228592;0.00443373;0.716529
0.138223;0.022335;0.00413565;0.715971
0.138722;0.0218712;0.00419361;0.715093
0.139221;0.0215032;0.00413151;0.71629
0.13972;0.0209622;0.00411909;0.716529
0.140219;0.0204344;0.00349814;0.714295
0.140718;0.0199873;0.00290614;0.713657
0.141217;0.0195205;0.00349399;0.713817
0.141716;0.0189491;0.00279851;0.713976
0.142215;0.018578;0.0023928;0.715253
0.142714;0.0181171;0.00227689;0.716449
0.143213;0.0176059;0.00225619;0.71605
0.143712;0.0171866;0.00220651;0.715572
0.144211;0.0167543;0.00196226;0.715572
0.14471;0.0162332;0.00166419;0.715492
0.145209;0.0157515;0.00185462;0.715332
0.145708;0.015339;0.000927314;0.715412
0.146207;0.014896;0.000509196;0.716529
0.146706;0.0143374;0.000269087;0.71621
0.147205;0.0139081;0.000517475;0.716529
0.147704;0.0134472;0.000169732;0.715971
0.148203;0.0129172;0.000235969;0.71621
0.148702;0.0124248;8.2796e-06;0.716369
0.149201;0.0119818;-7.03766e-05;0.71629
0.1497;0.011509;-0.000194571;0.715891
0.150199;0.0109001;-0.00136613;0.716529
0.150698;0.0104441;-0.00185048;0.716449
0.151197;0.00996354;-0.00186704;0.715332
0.151696;0.00940498;-0.00212371;0.715811
0.152195;0.00892629;-0.00223549;0.716529
0.152694;0.00848029;-0.00247146;0.716529
0.153193;0.00799568;-0.00293098;0.715013
0.153692;0.00747961;-0.0035685;0.715971
0.154191;0.00705028;-0.00372995;0.71629
0.15469;0.00645913;-0.00421431;0.714934
0.155189;0.0059736;-0.00407355;0.716449
0.155688;0.00554824;-0.00423501;0.71621
0.156187;0.00509526;-0.00466555;0.716529
0.156686;0.0045347;-0.00475662;0.716449
0.157185;0.00409653;-0.00581226;0.716449
0.157684;0.00355968;-0.00567566;0.716529
0.158183;0.00298532;-0.00593232;0.716529
0.158682;0.00244648;-0.00596957;0.716529
0.159181;0.00198954;-0.00622209;0.716529
0.15968;0.00155138;-0.00632145;0.71605
0.160179;0.00109247;-0.0067644;0.715731
0.160678;0.000662194;-0.00658639;0.716529
0.161177;0.000239811;-0.0069507;0.71621
0.161676;-0.000338499;-0.00747646;0.716529
0.162175;-0.000834897;-0.00794426;0.716529
0.162674;-0.00127702;-0.00794011;0.716529
0.163173;-0.00177342;-0.00817194;0.716369
0.163672;-0.00222443;-0.0081057;0.716529
0.164171;-0.00280768;-0.00835824;0.716529
0.16467;-0.00327546;-0.00894196;0.716529
0.165169;-0.00379849;-0.00920692;0.71621
0.165668;-0.00423073;-0.00963329;0.716529
0.166167;-0.00471333;-0.00981129;0.716369
0.166666;-0.00526304;-0.0102046;0.716529
0.167165;-0.00568444;-0.0103536;0.715412
0.167664;-0.00615319;-0.010424;0.71621
0.168163;-0.00674831;-0.0104198;0.716529
0.168662;-0.00732072;-0.0114755;0.715572
0.169161;-0.00772921;-0.0113554;0.716529
0.16966;-0.00817928;-0.01232;0.715651
0.170159;-0.00869833;-0.0123862;0.715412
0.170658;-0.00919379;-0.012349;0.716529
0.171157;-0.0096951;-0.0126429;0.71629
0.171656;-0.0101944;-0.0126263;0.714934
0.172155;-0.0106287;-0.0131728;0.715492
0.172654;-0.0110936;-0.0134088;0.715971
0.173153;-0.0116906;-0.0138931;0.716529
0.173652;-0.0121988;-0.0143816;0.716369
0.174151;-0.0126162;-0.0143816;0.716449
0.17465;-0.0131472;-0.014539;0.715652
0.175149;-0.0137394;-0.0145597;0.7127
0.175648;-0.0140966;-0.0148163;0.715412
0.176147;-0.0145694;-0.0146797;0.715572
0.176646;-0.0150745;-0.0148412;0.716369
0.177145;-0.0156015;-0.0157188;0.715811
0.177644;-0.0160684;-0.0158761;0.716529
0.178143;-0.0166033;-0.0161659;0.716369
0.178642;-0.0170375;-0.0154911;0.71621
0.179141;-0.0173711;-0.0162652;0.716529
0.17964;-0.0179019;-0.0164474;0.714614
0.180139;-0.0184182;-0.016526;0.715652
0.180638;-0.0188376;-0.016555;0.714216
0.181137;-0.0192747;-0.0166254;0.715971
0.181636;-0.0198157;-0.0167082;0.715731
0.182135;-0.0202587;-0.0170104;0.715891
0.182634;-0.0207629;-0.0169939;0.716529
0.183133;-0.0213432;-0.0182234;0.715811
0.183632;-0.0217922;-0.0181903;0.716529
0.184131;-0.0222275;-0.018331;0.716529
0.18463;-0.0227476;-0.0185339;0.716529
0.185129;-0.0233032;-0.0186208;0.716529
0.185628;-0.0236654;-0.0186705;0.716529
0.186127;-0.0241055;-0.0189271;0.716529
0.186626;-0.0246246;-0.0196102;0.716529
0.187125;-0.0251004;-0.020107;0.716529
0.187624;-0.0254911;-0.0196847;0.716529
0.188123;-0.026027;-0.0205996;0.716449
0.188622;-0.0265756;-0.0206658;0.716529
0.189121;-0.0269973;-0.0207196;0.716529
0.18962;-0.0275261;-0.0214565;0.716529
0.190119;-0.028125;-0.0218374;0.716449
0.190618;-0.0285199;-0.0220403;0.716529
0.191117;-0.0289728;-0.0223384;0.716529
0.191616;-0.0295957;-0.0225827;0.716449
0.192115;-0.0300189;-0.0227234;0.716529
0.192614;-0.0304254;-0.0227234;0.715412
0.193113;-0.0309053;-0.0227317;0.715492
0.193612;-0.0313915;-0.0227234;0.716529
0.194111;-0.0318754;-0.0235679;0.71613
0.19461;-0.0323923;-0.0234851;0.716529
0.195109;-0.0329932;-0.0238411;0.716529
0.195608;-0.0334297;-0.0244537;0.716529
0.196107;-0.0338854;-0.0245613;0.716449
0.196606;-0.0344126;-0.0245241;0.716529
0.197105;-0.0349098;-0.0247476;0.716529
0.197604;-0.0354071;-0.024876;0.715173
0.198103;-0.0358504;-0.0251492;0.716529
0.198602;-0.0364365;-0.0258985;0.716529
0.199101;-0.0368601;-0.0267349;0.716529
0.1996;-0.0372627;-0.0265238;0.716529
0.200099;-0.037842;-0.0269337;0.716449
0.200598;-0.0382821;-0.0268302;0.716529
0.201097;-0.0387716;-0.0269833;0.716529
0.201596;-0.0392087;-0.0269585;0.715891
0.202095;-0.0397416;-0.0269461;0.716529
0.202594;-0.0401672;-0.0272151;0.716529
0.203093;-0.0406297;-0.0273227;0.716529
0.203592;-0.0411784;-0.0283825;0.716529
0.204091;-0.0416385;-0.028519;0.71605
0.20459;-0.0421863;-0.0287964;0.71621
0.205089;-0.0427052;-0.0289082;0.716529
0.205588;-0.0432352;-0.0291028;0.71621
0.206087;-0.0437079;-0.0293056;0.715891
0.206586;-0.0441449;-0.029554;0.71621
0.207085;-0.0446602;-0.0297031;0.714934
0.207584;-0.0451766;-0.0301792;0.714933
0.208083;-0.0456513;-0.0304483;0.714854
0.208582;-0.0461206;-0.0309368;0.715891
0.209081;-0.0465758;-0.0309989;0.71629
0.20958;-0.0471227;-0.0309865;0.716529
0.210079;-0.0476345;-0.0310031;0.715811
0.210578;-0.0480719;-0.0310072;0.716529
0.211077;-0.0485458;-0.0313839;0.71613
0.211576;-0.0488389;-0.0314211;0.714216
0.212075;-0.0484548;-0.0314708;0.716529
0.212574;-0.0478931;-0.0311769;0.716449
0.213073;-0.0473517;-0.0309865;0.71629
0.213572;-0.0469262;-0.0309865;0.716369
0.214071;-0.0464651;-0.0309699;0.715332
0.21457;-0.045977;-0.0307836;0.714216
0.215069;-0.0456098;-0.0308664;0.716529
0.215568;-0.0450342;-0.0304359;0.715971
0.216067;-0.044591;-0.0303323;0.716529
0.216566;-0.0441984;-0.029405;0.716449
0.217065;-0.0436654;-0.029231;0.715731
0.217564;-0.0431226;-0.0292311;0.714774
0.218063;-0.0425918;-0.0289372;0.713817
0.218562;-0.0420826;-0.0288709;0.716529
0.219061;-0.0414349;-0.0283494;0.715891
0.21956;-0.0410017;-0.0279189;0.7127
0.220059;-0.0405788;-0.0281383;0.715253
0.220558;-0.0400307;-0.0272938;0.715572
0.221057;-0.0395748;-0.0272731;0.715013
0.221556;-0.039124;-0.0268509;0.715731
0.222055;-0.0386896;-0.0266231;0.71629
0.222554;-0.0380818;-0.0261553;0.715572
0.223053;-0.0377247;-0.025675;0.71629
0.223552;-0.0371887;-0.0257744;0.715093
0.224051;-0.0366595;-0.0249588;0.71629
0.22455;-0.0361622;-0.0249546;0.715572
0.225049;-0.0356924;-0.0248429;0.715811
0.225548;-0.035124;-0.0248677;0.716529
0.226047;-0.034683;-0.0249505;0.71629
0.226546;-0.0343169;-0.0247973;0.715652
0.227045;-0.033776;-0.0247725;0.716529
0.227544;-0.033234;-0.0247269;0.716529
0.228043;-0.0327624;-0.0236796;0.715651
0.228542;-0.0323599;-0.024164;0.714056
0.229041;-0.0318002;-0.0234975;0.71621
0.22954;-0.0312812;-0.0228724;0.714614
0.230039;-0.0309397;-0.0229304;0.716449
0.230538;-0.0303841;-0.0230215;0.716529
0.231037;-0.0298503;-0.0226779;0.716449
0.231536;-0.0294436;-0.0222721;0.71613
0.232035;-0.0288939;-0.0224087;0.71629
0.232534;-0.0282444;-0.0220569;0.71613
0.233033;-0.0279218;-0.0215807;0.713817
0.233532;-0.0274749;-0.0213448;0.715572
0.234031;-0.0268846;-0.0210922;0.716529
0.23453;-0.0263586;-0.0206865;0.715013
0.235029;-0.026021;-0.020198;0.715492
0.235528;-0.0254813;-0.0198421;0.715811
0.236027;-0.025049;-0.0197758;0.715173
0.236526;-0.024592;-0.0191673;0.716529
0.237025;-0.0240513;-0.0188154;0.716529
0.237524;-0.0235223;-0.0185918;0.715971
0.238023;-0.0230692;-0.018567;0.716529
0.238522;-0.0225403;-0.0183269;0.716449
0.239021;-0.0220913;-0.0185421;0.716529
0.23952;-0.0216186;-0.0181282;0.716529
0.240019;-0.0212051;-0.0167827;0.71629
0.240518;-0.0206978;-0.0168076;0.715332
0.241017;-0.0201778;-0.0165509;0.71629
0.241516;-0.0197347;-0.0164805;0.715971
0.242015;-0.0192768;-0.0165095;0.71629
0.242514;-0.0187804;-0.0164184;0.716529
0.243013;-0.0183105;-0.016435;0.715332
0.243512;-0.0178358;-0.016406;0.71629
0.244011;-0.0174096;-0.0157395;0.716529
0.24451;-0.0168698;-0.0156401;0.716449
0.245009;-0.0164187;-0.0151185;0.716529
0.245508;-0.015945;-0.0146797;0.716449
0.246007;-0.0154258;-0.0145017;0.715731
0.246506;-0.0149809;-0.0145141;0.716529
0.247005;-0.0145832;-0.0144479;0.715173
0.247504;-0.0140393;-0.0141043;0.716529
0.248003;-0.013614;-0.0141746;0.715651
0.248502;-0.0131205;-0.0136779;0.716529
0.249001;-0.012631;-0.0134916;0.71613
0.2495;-0.012184;-0.0131024;0.71629
0.249999;-0.0116018;-0.0123945;0.716529
0.250498;-0.0110175;-0.0123614;0.716529
0.250997;-0.0104155;-0.0122869;0.716529
0.251496;-0.00995369;-0.0120509;0.716529
0.251995;-0.00947506;-0.0112975;0.716529
0.252494;-0.00899636;-0.0115997;0.716529
0.252993;-0.0084941;-0.0106061;0.716529
