t;vds;corrente;vg
0.00998;-0.00161299;0.0011725;0.434767
0.01996;-0.00149926;0.00544618;0.44341
0.02994;-0.00146663;-0.000780916;0.443448
0.03992;-0.00160558;0.00330979;0.443448
0.0499;-0.00153437;-0.00097918;0.443259
0.05988;-0.00167184;0.0107467;0.44307
0.06986;-0.00159865;-0.00214853;0.443448
0.07984;-0.0015141;0.00162253;0.443448
0.08982;-0.00148393;-0.00135548;0.443448
0.0998;-0.0015942;0.00140403;0.44341
0.10978;-0.00160508;0.00317222;0.443316
0.11976;-0.00169409;0.000182079;0.443448
0.12974;-0.00147405;0.00385198;0.443448
0.13972;-0.000120159;0.00190576;0.443448
0.1497;-1.48343e-06;0.0109126;0.443448
0.15968;-0.000135488;0.00680571;0.443448
0.16966;0.000721941;0.00444677;0.443448
0.17964;0.00164365;0.00957735;0.443221
0.18962;0.00272459;0.0190414;0.443127
0.1996;0.00349004;0.0125999;0.443448
0.20958;0.00460954;0.0122762;0.443259
0.21956;0.00543879;0.0175443;0.443297
0.22954;0.00638374;0.0191992;0.443429
0.23952;0.0074983;0.0206397;0.443089
0.2495;0.00856735;0.0213154;0.443051
0.25948;0.00953702;0.0141819;0.443354
0.26946;0.0104058;0.0203726;0.442541
0.27944;0.0113176;0.0294199;0.443448
0.28942;0.012355;0.0364482;0.443146
0.2994;0.0133;0.0291569;0.442597
0.30938;0.0143142;0.033195;0.442692
0.31936;0.0153887;0.0269679;0.44324
0.32934;0.0161145;0.0419024;0.443221
0.33932;0.0172346;0.0436747;0.443391
0.3493;0.01818;0.0509335;0.443429
0.35928;0.0191546;0.0386331;0.443146
0.36926;0.0202182;0.0402111;0.442616
0.37924;0.0210652;0.0480162;0.443316
0.38922;0.02199;0.0545549;0.44307
0.3992;0.0230764;0.0600415;0.443259
0.40918;0.0239115;0.0449047;0.443013
0.41916;0.0234007;0.0530902;0.44324
0.42914;0.0224918;0.0578282;0.443335
0.43912;0.0214767;0.0533774;0.443354
0.4491;0.0205164;0.0500272;0.443448
0.45908;0.0195566;0.0465353;0.4429
0.46906;0.0186438;0.0502173;0.443278
0.47904;0.0175545;0.0434521;0.443316
0.48902;0.0166526;0.0392603;0.442503
0.499;0.0156839;0.0399521;0.443221
0.50898;0.0146504;0.0386573;0.443259
0.51896;0.0135146;0.04011;0.44171
0.52894;0.0125558;0.0308765;0.44256
0.53892;0.0116603;0.0224766;0.441747
0.5489;0.0107148;0.0306337;0.44237
0.55888;0.00978228;0.0266725;0.442843
0.56886;0.00871322;0.0282586;0.44341
0.57884;0.00763576;0.0188108;0.443448
0.58882;0.00690541;0.0231887;0.443448
0.5988;0.00591695;0.0187298;0.443278
0.60878;0.00492304;0.0192842;0.443448
0.61876;0.00396128;0.0111068;0.443448
0.62874;0.00299952;0.00860627;0.44341
0.63872;0.00200116;0.013575;0.443448
0.6487;0.000886603;0.00369014;0.443448
0.65868;0.000234384;0.00687853;0.443448
0.66866;-0.00103692;-0.00470168;0.443429
0.67864;-0.00170991;-0.000376298;0.443391
0.68862;-0.00287787;-0.0105201;0.443448
0.6986;-0.00409281;0.00345141;0.443278
0.70858;-0.00457839;-0.0162131;0.44341
0.71856;-0.00609496;0.000623115;0.443221
0.72854;-0.00698651;-0.00574155;0.443448
0.73852;-0.00734797;-0.0129762;0.442805
0.7485;-0.00958152;-0.0113779;0.443448
0.75848;-0.00893079;-0.0224847;0.443448
0.76846;-0.0108924;-0.0163021;0.443164
0.77844;-0.0119827;-0.0171801;0.443448
0.78842;-0.0120079;-0.0220963;0.443448
0.7984;-0.0140432;-0.0210281;0.443448
0.80838;-0.0145213;-0.0217362;0.443335
0.81836;-0.0151726;-0.026369;0.443372
0.82834;-0.0168592;-0.0305488;0.443297
0.83832;-0.017147;-0.0259887;0.443448
0.8483;-0.0186463;-0.03188;0.443183
0.85828;-0.0196461;-0.0340447;0.443448
0.86826;-0.0201193;-0.0408585;0.443032
0.87824;-0.0216448;-0.0375689;0.443297
0.88822;-0.0222342;-0.040373;0.443335
0.8982;-0.0232949;-0.0457382;0.443108
0.90818;-0.0243031;-0.044322;0.44273
0.91816;-0.0237123;-0.0513301;0.443221
0.92814;-0.0228697;-0.0492665;0.443335
0.93812;-0.0219638;-0.0422504;0.443202
0.9481;-0.0208705;-0.0418741;0.442786
0.95808;-0.0199472;-0.0376458;0.443448
0.96806;-0.0188881;-0.0367759;0.443448
0.97804;-0.0181058;-0.0312447;0.442938
0.98802;-0.0170734;-0.0400048;0.443051
0.998;-0.0160864;-0.0346961;0.443448
1.00798;-0.0150687;-0.0266321;0.443259
1.01796;-0.0141925;-0.0242043;0.443372
1.02794;-0.0133203;-0.0265471;0.443448
1.03792;-0.0122205;-0.0221327;0.443335
1.0479;-0.0111362;-0.0174108;0.442296
1.05788;-0.0103821;-0.0194015;0.443051
1.06786;-0.00932687;-0.0187986;0.44324
1.07784;-0.00832012;-0.015331;0.443448
1.08782;-0.00735984;-0.0166865;0.443448
1.0978;-0.00627792;-0.00886522;0.443354
1.10778;-0.00546005;-0.00368204;0.443221
1.11776;-0.00445428;-0.00778489;0.443448
1.12774;-0.00337137;-0.00251269;0.443372
1.13772;-0.0024991;0.0062271;0.443372
1.1477;-0.00153684;0.00689472;0.44341
1.15768;-0.000371355;0.00300633;0.443203
1.16766;0.000470251;0.00630803;0.443165
1.17764;0.00141669;0.0101762;0.442427
1.18762;0.00244075;0.00950452;0.443278
1.1976;0.00325417;0.0158287;0.443354
1.20758;0.00427231;0.0128993;0.442975
1.21756;0.0052311;0.0150518;0.443448
1.22754;0.00621413;0.0166339;0.443335
1.23752;0.00723276;0.0245159;0.44341
1.2475;0.00820441;0.0203321;0.44324
1.25748;0.00926159;0.029517;0.443429
1.26746;0.0102209;0.0321916;0.443127
1.27744;0.0111683;0.030654;0.443316
1.28742;0.0120158;0.0307673;0.443354
1.2974;0.0130671;0.0295615;0.443316
1.30738;0.0141396;0.0335834;0.442674
1.31736;0.0149758;0.0358291;0.443221
1.32734;0.0158564;0.0332759;0.443373
1.33732;0.0169493;0.0481457;0.443297
1.3473;0.0179268;0.0449694;0.44307
1.35728;0.0189623;0.0473244;0.44324
1.36726;0.0198459;0.0558942;0.443032
1.37724;0.0209441;0.0530133;0.442635
1.38722;0.0217916;0.0549109;0.443089
1.3972;0.0227692;0.0526815;0.443448
1.40718;0.0238067;0.050618;0.443297
1.41716;0.0234877;0.0564242;0.443391
1.42714;0.0224914;0.0477896;0.4429
1.43712;0.0216017;0.0567925;0.443221
1.4471;0.0206044;0.049748;0.443429
1.45708;0.0196961;0.0547653;0.442805
1.46706;0.0185592;0.0558942;0.442994
1.47704;0.0177488;0.0503428;0.442824
1.48702;0.016838;0.0552832;0.442276
1.497;0.0156834;0.0420562;0.443278
1.50698;0.0149234;0.0411701;0.442616
1.51696;0.0135057;0.0158854;0.442295
1.52694;0.0128238;0.0282303;0.443448
1.53692;0.0119392;0.0376296;0.443089
1.5469;0.0110783;0.0216836;0.443108
1.55688;0.00985793;0.0255234;0.443089
1.56686;0.00880767;0.0342753;0.442749
1.57684;0.00807288;0.0393776;0.441841
1.58682;0.00685794;0.0130409;0.443391
1.5968;0.00607765;0.0176212;0.443221
1.60678;0.00518215;0.0225778;0.443448
1.61676;0.00413089;0.0161969;0.442862
1.62674;0.00304501;0.0122883;0.443013
1.63672;0.00208275;0.0158651;0.443165
1.6467;0.00127081;0.0104473;0.442692
1.65668;0.000234878;0.00558376;0.442919
1.66666;-0.000719963;-0.00255315;0.443108
1.67664;-0.00165948;0.00534907;0.443354
1.68662;-0.00275178;-0.00414736;0.442768
1.6966;-0.00363789;-0.0108559;0.443278
1.70658;-0.00455021;-0.0139351;0.443032
1.71656;-0.00580866;-0.00947215;0.443278
1.72654;-0.00646829;-0.00919296;0.442371
1.73652;-0.00776729;-0.00517913;0.442862
1.7465;-0.00843731;-0.0087317;0.443221
1.75648;-0.00941389;-0.0205061;0.442617
1.76646;-0.0104726;-0.0218292;0.443448
1.77644;-0.0113493;-0.0193044;0.443221
1.78642;-0.0126621;-0.0172651;0.443373
1.7964;-0.0133964;-0.0290881;0.443089
1.80638;-0.0143933;-0.0194865;0.442976
1.81636;-0.0154955;-0.0286066;0.442352
1.82634;-0.0163381;-0.0256488;0.443184
1.83632;-0.0173211;-0.0270974;0.443335
1.8463;-0.018273;-0.0332071;0.443354
1.85628;-0.0191299;-0.0384065;0.443448
1.86626;-0.0202875;-0.0413602;0.443089
1.87624;-0.0212255;-0.0435169;0.442919
1.88622;-0.0222199;-0.041433;0.443335
1.8962;-0.0231549;-0.0336927;0.442522
1.90618;-0.0240499;-0.0423192;0.441766
1.91616;-0.0240445;-0.0496711;0.442351
1.92614;-0.0230467;-0.0479919;0.443202
1.93612;-0.0222243;-0.045277;0.443448
1.9461;-0.0209975;-0.0392238;0.443146
1.95608;-0.0202523;-0.0431446;0.442976
1.96606;-0.0191526;-0.0435047;0.439139
1.97604;-0.0182715;-0.029428;0.441539
1.98602;-0.0173819;-0.0415261;0.443146
1.996;-0.0164196;-0.0271014;0.443165
2.00598;-0.0152977;-0.0190333;0.443448
2.01596;-0.0142761;-0.0274696;0.443278
2.02594;-0.0133732;-0.0289303;0.443448
2.03592;-0.0123788;-0.025313;0.443372
2.0459;-0.0114541;-0.0242731;0.443297
2.05588;-0.0105186;-0.017957;0.44239
2.06586;-0.00954245;-0.0228772;0.443127
2.07584;-0.00846549;-0.010945;0.443354
2.08582;-0.00751016;-0.00779298;0.443429
2.0958;-0.00652021;-0.0132068;0.443448
2.10578;-0.00556636;-0.00162657;0.443165
2.11576;-0.00477322;-0.0132351;0.443372
2.12574;-0.00356866;-0.000679761;0.443448
2.13572;-0.00271766;0.00107629;0.443335
2.1457;-0.00177321;0.000594793;0.443391
2.15568;-0.000821826;0.00384794;0.44324
2.16566;0.000462833;0.00553925;0.443013
2.17564;0.00126043;0.000558376;0.443448
2.18562;0.00223802;0.0124542;0.443354
2.1956;0.00305292;0.0241113;0.443032
2.20558;0.00407946;0.0174593;0.442768
2.21556;0.00513369;0.0145259;0.442825
2.22554;0.00600447;0.0153189;0.442919
2.23552;0.00710766;0.0109854;0.443316
2.2455;0.00795075;0.0300835;0.442919
2.25548;0.00893425;0.0257581;0.443221
2.26546;0.00984755;0.0317545;0.442938
2.27544;0.0109567;0.0271217;0.44307
2.28542;0.0118729;0.0335834;0.443429
2.2954;0.0128194;0.0366262;0.443127
2.30538;0.0138662;0.0374192;0.443297
2.31536;0.014822;0.041251;0.442938
2.32534;0.0158129;0.0443585;0.442749
2.33532;0.0167747;0.040907;0.44341
2.3453;0.0176351;0.0486312;0.443448
2.35528;0.0185573;0.0480729;0.443221
2.36526;0.0197549;0.0509942;0.443448
2.37524;0.0207592;0.0533572;0.443448
2.38522;0.0215306;0.0548867;0.443448
2.3952;0.0225408;0.0593132;0.443089
2.40518;0.0235495;0.063849;0.443278
2.41516;0.0236677;0.0656374;0.443259
2.42514;0.0227628;0.0542272;0.443391
2.43512;0.0215786;0.0614213;0.443391
2.4451;0.0208803;0.0494081;0.442994
2.45508;0.0198593;0.053248;0.442655
2.46506;0.0188604;0.0496064;0.442314
2.47504;0.0178314;0.0411417;0.442238
2.48502;0.0167801;0.0376499;0.443202
2.495;0.0161615;0.0373181;0.443429
2.50498;0.014956;0.0318921;0.443297
2.51496;0.0138434;0.0320904;0.443429
2.52494;0.0129766;0.036695;0.443221
2.53492;0.0119362;0.0364805;0.443051
2.5449;0.0111361;0.0349065;0.443183
2.55488;0.0101615;0.0321592;0.443108
2.56486;0.00904353;0.0259564;0.443127
2.57484;0.00815843;0.02908;0.443448
2.58482;0.007301;0.0238685;0.443391
2.5948;0.00613205;0.0216471;0.443448
2.60478;0.00527412;0.0170547;0.443448
2.61476;0.00439346;0.0148091;0.443278
2.62474;0.00323736;0.0145703;0.443448
2.63472;0.00230774;0.0128143;0.442578
2.6447;0.00148443;0.0124259;0.442938
2.65468;0.000585464;0.0027757;0.443032
2.66466;-0.000493491;0.000335834;0.442862
2.67464;-0.00149234;0.00108033;0.443108
2.68462;-0.00246152;-0.00726697;0.443316
2.6946;-0.00337928;0.00025491;0.443278
2.70458;-0.00445625;-0.00852939;0.443429
2.71456;-0.00537945;-0.00404215;0.442938
2.72454;-0.00640896;-0.0139594;0.442749
2.73452;-0.00741522;-0.0132634;0.4429
2.7445;-0.00840862;-0.010245;0.443202
2.75448;-0.00934665;-0.0101398;0.443448
2.76446;-0.0102313;-0.0168888;0.442995
2.77444;-0.0113577;-0.0270812;0.443108
2.78442;-0.012268;-0.0185194;0.442919
2.7944;-0.0131902;-0.024702;0.443202
2.80438;-0.0142425;-0.0282384;0.442787
2.81436;-0.0151231;-0.023387;0.443335
2.82434;-0.0159751;-0.0340447;0.443146
2.83432;-0.0172613;-0.0303465;0.443373
2.8443;-0.0180035;-0.038277;0.443183
2.85428;-0.0192268;-0.0307916;0.443372
2.86426;-0.0200145;-0.0347932;0.443448
2.87424;-0.0209051;-0.0458029;0.443448
2.88422;-0.022026;-0.039418;0.44307
2.8942;-0.022924;-0.0459244;0.443448
2.90418;-0.0238675;-0.0538063;0.443013
2.91416;-0.024225;-0.0558659;0.443448
2.92414;-0.023194;-0.0546803;0.443429
2.93412;-0.0223529;-0.049048;0.443448
2.9441;-0.0212482;-0.0375406;0.442976
2.95408;-0.0204472;-0.0357562;0.442957
2.96406;-0.0195027;-0.0297719;0.442881
2.97404;-0.0183971;-0.0295049;0.442994
2.98402;-0.0174175;-0.0344736;0.443127
2.994;-0.0166258;-0.0265754;0.442843
3.00398;-0.0155365;-0.0324991;0.442692
3.01396;-0.014415;-0.0295372;0.443221
3.02394;-0.0136367;-0.0277043;0.443221
3.03392;-0.0126626;-0.0345869;0.443051
3.0439;-0.011774;-0.0215339;0.443448
3.05388;-0.0105734;-0.0179853;0.443448
3.06386;-0.00965124;-0.00640109;0.443221
3.07384;-0.00875624;-0.00583057;0.443259
3.08382;-0.0077663;-0.00171963;0.443203
3.0938;-0.00693261;0.00574965;0.443373
3.10378;-0.00578492;-0.0048433;0.443335
3.11376;-0.00468174;-0.000817332;0.44341
3.12374;-0.0039776;-0.0261789;0.443032
3.13372;-0.0027592;0.000732358;0.443448
3.1437;-0.00183205;0.00946001;0.443391
3.15368;-0.000745676;-0.00375892;0.443448
3.16366;9.39512e-05;0.0101438;0.443448
3.17364;0.00101715;0.0123369;0.443448
3.18362;0.00215791;0.0246899;0.442994
3.1936;0.00285414;0.00492827;0.443354
3.20358;0.00402507;0.0187986;0.443391
3.21356;0.00491464;0.0148414;0.442862
3.22354;0.00580668;0.0228772;0.443316
3.23352;0.00686882;0.018127;0.443316
3.2435;0.00782614;0.0260251;0.443391
3.25348;0.00882053;0.0266199;0.443448
3.26346;0.00985744;0.0298205;0.443429
3.27344;0.0106624;0.0357846;0.443259
3.28342;0.0116178;0.0316655;0.443297
3.2934;0.0127051;0.0448521;0.443335
3.30338;0.013614;0.0335429;0.442976
3.31336;0.0146099;0.0340204;0.442711
3.32334;0.0155538;0.0393209;0.443448
3.33332;0.0164805;0.0458232;0.443429
3.3433;0.0175208;0.0552792;0.443448
3.35328;0.0183397;0.0540329;0.443165
3.36326;0.0195062;0.0629144;0.443448
3.37324;0.0204887;0.0619716;0.443221
3.38322;0.0214703;0.0476926;0.443448
3.3932;0.0222678;0.0592121;0.443183
3.40318;0.0234763;0.0633877;0.442787
3.41316;0.0235401;0.0712778;0.440594
3.42314;0.0228054;0.0560277;0.442938
3.43312;0.0224488;0.0534705;0.441878
3.4431;0.019927;0.0555583;0.442768
3.45308;0.0208215;0.0474133;0.443448
3.46306;0.0190824;0.054385;0.442805
3.47304;0.0173498;0.048874;0.443429
3.48302;0.0178922;0.0457261;0.443448
3.493;0.0155573;0.0472798;0.443448
3.50298;0.0149822;0.0449735;0.443354
3.51296;0.0147953;0.0398065;0.443051
3.52294;0.0125993;0.0304153;0.443259
3.53292;0.0126023;0.0381112;0.443448
3.5429;0.011237;0.0383903;0.443013
3.55288;0.0101165;0.024172;0.443146
3.56286;0.00974766;0.0254303;0.442938
3.57284;0.00814953;0.0210159;0.443448
3.58282;0.00743649;0.0211657;0.443448
3.5928;0.00653554;0.0199882;0.443448
3.60278;0.00535225;0.0268384;0.443391
3.61276;0.00457444;0.018742;0.443316
3.62274;0.00340252;0.0104877;0.443448
3.63272;0.00245213;0.0114791;0.442919
3.6427;0.00163277;0.0108155;0.443335
3.65268;0.000622056;0.00187744;0.443051
3.66266;-0.000446021;0.00505371;0.443278
3.67264;-0.00133905;0.00232657;0.443448
3.68262;-0.00238933;0.00784557;0.443448
3.6926;-0.00327346;1.21386e-05;0.443448
3.70258;-0.00419616;-0.0112848;0.443391
3.71256;-0.00518462;-0.0080317;0.443089
3.72254;-0.0061726;-0.011382;0.44341
3.73252;-0.00715018;-0.00987676;0.443391
3.7425;-0.00813469;-0.0110664;0.44341
3.75248;-0.00910386;-0.00926984;0.443372
3.76246;-0.0102466;-0.0183293;0.443448
3.77244;-0.0109903;-0.00949237;0.442919
3.78242;-0.0119788;-0.0303829;0.443183
3.7924;-0.0129924;-0.0273482;0.443335
3.80238;-0.0139947;-0.031791;0.443316
3.81236;-0.0150361;-0.0285055;0.443391
3.82234;-0.0157679;-0.0320904;0.443164
3.83232;-0.0167688;-0.0291569;0.44341
3.8423;-0.017913;-0.0354406;0.443448
3.85228;-0.0187541;-0.0421452;0.443448
3.86226;-0.0197554;-0.0382406;0.443448
3.87224;-0.0208744;-0.0429342;0.443202
3.88222;-0.0216977;-0.0432134;0.443165
3.8922;-0.0224844;-0.045544;0.443429
3.90218;-0.0237864;-0.0422989;0.443448
3.91216;-0.0240267;-0.0456775;0.443448
3.92214;-0.0234393;-0.0461833;0.443448
3.93212;-0.0225631;-0.0355822;0.44341
3.9421;-0.021359;-0.0479232;0.443429
3.95208;-0.0206894;-0.040199;0.443448
3.96206;-0.0194765;-0.037929;0.443448
3.97204;-0.0185676;-0.0387828;0.443448
3.98202;-0.0176573;-0.0328835;0.443448
3.992;-0.0164904;-0.0393776;0.443448
4.00198;-0.0157269;-0.0255962;0.443354
4.01196;-0.0147928;-0.0287846;0.443354
4.02194;-0.0136224;-0.0218049;0.443335
4.03192;-0.012762;-0.0200044;0.443259
4.0419;-0.011868;-0.0254951;0.443108
4.05188;-0.0108251;-0.0219425;0.443297
4.06186;-0.00982333;-0.0155253;0.443448
4.07184;-0.00881361;-0.0157964;0.443165
4.08182;-0.00789784;-0.0174877;0.443354
4.0918;-0.00686981;-0.0151125;0.443448
4.10178;-0.00586107;-0.011645;0.443108
4.11176;-0.00494332;-0.00345545;0.443335
4.12174;-0.00392469;0.00100751;0.443032
4.13172;-0.00294018;0.000853748;0.443297
4.1417;-0.00210253;-0.00456816;0.443372
4.15168;-0.000997861;0.00156993;0.443316
4.16166;-0.000151311;0.00934267;0.443448
4.17164;0.000824793;0.0160432;0.443448
4.18162;0.00183304;0.0163224;0.443448
4.1916;0.00277601;0.00796292;0.443429
4.20158;0.00361366;0.0100872;0.443391
4.21156;0.00484195;0.0139715;0.443221
4.22154;0.00579778;0.0174391;0.443448
4.23152;0.00680108;0.0217564;0.443335
4.2415;0.00769263;0.0271581;0.44341
4.25148;0.00868504;0.0250176;0.443448
4.26146;0.00966262;0.0310424;0.443108
4.27144;0.0106338;0.0319569;0.443221
4.28142;0.0115604;0.0299297;0.443448
4.2914;0.0124772;0.0423273;0.443448
4.30138;0.0134642;0.0381516;0.443448
4.31136;0.0143735;0.0401261;0.443448
4.32134;0.0154;0.0319326;0.443448
4.33132;0.0162995;0.044581;0.443448
4.3413;0.0172786;0.0398672;0.443316
4.35128;0.0183145;0.0453215;0.442938
4.36126;0.0193534;0.0572254;0.4429
4.37124;0.0201985;0.0480203;0.4429
4.38122;0.0211162;0.0608589;0.442805
4.3912;0.0221299;0.0636264;0.442711
4.40118;0.0231916;0.0655282;0.44307
4.41116;0.02387;0.0628617;0.443448
4.42114;0.0230739;0.0652652;0.443448
4.43112;0.0220547;0.0612311;0.443448
4.4411;0.0211469;0.0526653;0.44273
4.45108;0.0202494;0.0610814;0.44341
4.46106;0.0193015;0.0500676;0.443429
4.47104;0.0182981;0.0546399;0.443297
4.48102;0.0173067;0.0496792;0.443316
4.491;0.016298;0.0403487;0.443448
4.50098;0.0153288;0.0471706;0.443448
4.51096;0.0144393;0.0404539;0.443089
4.52094;0.0136046;0.0364077;0.44324
4.53092;0.0125449;0.0258875;0.443429
4.5409;0.0115733;0.0286875;0.443448
4.55088;0.0105719;0.0295898;0.443429
4.56086;0.00949647;0.0320216;0.443278
4.57084;0.00853769;0.0350967;0.443372
4.58082;0.00755219;0.0284286;0.443448
4.5908;0.00666856;0.0210443;0.443221
4.60078;0.00548181;0.0290679;0.443354
4.61076;0.00465504;0.0142588;0.443108
4.62074;0.00378178;0.0103502;0.44341
4.63072;0.00273497;0.00258148;0.443373
4.6407;0.00170843;0.00504561;0.442919
4.65068;0.000834188;0.00126646;0.443448
4.66066;-0.000124609;0.00573751;0.44341
4.67064;-0.00100923;0.00522364;0.442862
4.68062;-0.00203874;0.00625947;0.443429
4.6906;-0.00310286;0.00265026;0.443429
4.70058;-0.00414424;0.0094155;0.44341
4.71056;-0.00507435;-0.00582653;0.443183
4.72054;-0.00590854;-0.00577393;0.443448
4.73052;-0.00711755;-0.0332395;0.443429
4.7405;-0.00797399;-0.00115721;0.443259
4.75048;-0.00881261;-0.0176374;0.443278
4.76046;-0.00989156;-0.0224604;0.442995
4.77044;-0.0110323;-0.0269517;0.443259
4.78042;-0.0117829;-0.0149547;0.443316
4.7904;-0.0127635;-0.0188998;0.443259
4.80038;-0.0139309;-0.0360395;0.443448
4.81036;-0.014776;-0.0148617;0.443202
4.82034;-0.0156048;-0.0330291;0.443448
4.83032;-0.0166046;-0.0288615;0.443448
4.8403;-0.0176593;-0.0279309;0.443448
4.85028;-0.0187902;-0.0375932;0.443391
4.86026;-0.0196639;-0.0438689;0.443297
4.87024;-0.0205268;-0.0378522;0.44273
4.88022;-0.0216122;-0.045981;0.44307
4.8902;-0.0225813;-0.0490602;0.443165
4.90018;-0.0235184;-0.0486191;0.443373
4.91016;-0.0241592;-0.0508729;0.443108
4.92014;-0.0235693;-0.0522647;0.443221
4.93012;-0.0226723;-0.046774;0.443221
4.9401;-0.021899;-0.0397296;0.443051
4.95008;-0.0206252;-0.0379776;0.443183
4.96006;-0.0195156;-0.0330655;0.443448
4.97004;-0.0189241;-0.0421938;0.443127
4.98002;-0.0177013;-0.0417042;0.443259
4.99;-0.0169067;-0.038277;0.442636
4.99998;-0.0159079;-0.0226344;0.443448
5.00996;-0.014734;-0.0288979;0.443013
5.01994;-0.0142261;-0.0300956;0.443448
5.02992;-0.0126908;-0.0298731;0.443051
5.0399;-0.0121968;-0.0282627;0.443297
5.04988;-0.0112069;-0.0087843;0.443448
5.05986;-0.00976744;-0.0184992;0.443448
5.06984;-0.00910831;-0.018746;0.443448
5.07982;-0.00816732;-0.0172894;0.443448
5.0898;-0.00703002;-0.00235489;0.442881
5.09978;-0.00631451;-0.00131097;0.443014
5.10976;-0.00493194;-0.00554329;0.443448
5.11974;-0.00410567;-0.00636872;0.443013
5.12972;-0.00317407;-0.00379938;0.443297
5.1397;-0.00209561;0.000829471;0.442825
5.14968;-0.00135834;0.00659125;0.442806
5.15966;-0.000313995;0.0143235;0.443316
5.16964;0.000645791;0.000772824;0.443335
5.17962;0.00157937;-0.00246009;0.443448
5.1896;0.00258811;0.0178235;0.443448
5.19958;0.00346927;0.0155738;0.443372
5.20956;0.00454427;0.0112484;0.443108
5.21954;0.00544076;0.0245806;0.44324
