t;vds;corrente;vg
0.000499;0.0216176;0.0040089;0.608877
0.000998;0.0220518;0.00380447;0.619532
0.001497;0.0225464;0.00398661;0.61985
0.001996;0.0230267;0.00419775;0.619405
0.002495;0.0234315;0.00412323;0.619405
0.002994;0.0238913;0.00422673;0.619405
0.003493;0.0243402;0.00453308;0.619405
0.003992;0.0248023;0.00502572;0.619405
0.004491;0.025269;0.00558871;0.619405
0.00499;0.0258001;0.00593645;0.619405
0.005489;0.0262293;0.00530723;0.619405
0.005988;0.0268107;0.00599441;0.619437
0.006487;0.0272725;0.00620139;0.619405
0.006986;0.0278201;0.00673543;0.619405
0.007485;0.0281903;0.00726946;0.619659
0.007984;0.028729;0.00775382;0.619468
0.008483;0.0292562;0.00791527;0.619405
0.008982;0.0297496;0.00817194;0.619405
0.009481;0.0302665;0.00811813;0.61985
0.00998;0.0307887;0.00826302;0.619405
0.010479;0.0312949;0.0082713;0.619692
0.010978;0.0317233;0.00834996;0.620041
0.011477;0.0322088;0.00872668;0.619405
0.011976;0.0327218;0.00890056;0.619405
0.012475;0.0331266;0.0093021;0.619437
0.012974;0.0336004;0.00962917;0.619405
0.013473;0.0340857;0.00926073;0.619405
0.013972;0.0346395;0.0101673;0.619405
0.014471;0.0351299;0.0103743;0.619405
0.01497;0.0357487;0.0104654;0.619405
0.015469;0.0362786;0.0104116;0.619405
0.015968;0.0366439;0.0107883;0.619405
0.016467;0.0371887;0.0115831;0.619405
0.016966;0.037607;0.0120012;0.619596
0.017465;0.0380078;0.0119847;0.619405
0.017964;0.038517;0.0121378;0.619405
0.018463;0.0390586;0.0123945;0.619405
0.018962;0.0395127;0.0123945;0.619405
0.019461;0.0399637;0.0122869;0.619405
0.01996;0.040539;0.0124359;0.619405
0.020459;0.0410778;0.0129575;0.619405
0.020958;0.041522;0.0133177;0.619405
0.021457;0.0420383;0.0136489;0.619405
0.021956;0.042567;0.0137814;0.619278
0.022455;0.0429975;0.0133467;0.618068
0.022954;0.0435294;0.0143444;0.619405
0.023453;0.0439524;0.0144644;0.619405
0.023952;0.0443513;0.0143692;0.619405
0.024451;0.0448606;0.01451;0.619405
0.02495;0.0453049;0.0144976;0.619405
0.025449;0.0458121;0.0148122;0.619405
0.025948;0.0462272;0.0158388;0.619405
0.026447;0.0466687;0.0160914;0.619405
0.026946;0.0472036;0.0165302;0.619405
0.027445;0.0476731;0.0167372;0.619405
0.027944;0.0481765;0.0170974;0.619405
0.028443;0.0482534;0.0171388;0.619405
0.028942;0.0477492;0.0169152;0.619405
0.029441;0.04724;0.0166751;0.619405
0.02994;0.04671;0.0166337;0.619405
0.030439;0.0462047;0.016319;0.619405
0.030938;0.0457341;0.0159713;0.619405
0.031437;0.0452614;0.0155366;0.619405
0.031936;0.0448555;0.0153793;0.619405
0.032435;0.0443394;0.0147087;0.619405
0.032934;0.043853;0.0144976;0.619437
0.033433;0.0434602;0.0142326;0.619659
0.033932;0.0428968;0.0135371;0.619405
0.034431;0.0423352;0.0131769;0.619405
0.03493;0.0418488;0.0126222;0.619405
0.035429;0.0414033;0.0124152;0.619405
0.035928;0.0408735;0.0123945;0.619405
0.036427;0.0403063;0.0123697;0.619405
0.036926;0.0399508;0.0122372;0.619405
0.037425;0.0394742;0.0121792;0.620105
0.037924;0.0389541;0.0106765;0.619405
0.038423;0.0385111;0.0106227;0.619405
0.038922;0.0381046;0.0105523;0.6195
0.039421;0.0375775;0.0103329;0.620201
0.03992;0.0371078;0.010275;0.620105
0.040419;0.0366378;0.0103039;0.619914
0.040918;0.0361257;0.00985687;0.61985
0.041417;0.035644;0.00950911;0.619437
0.041916;0.035121;0.00945116;0.62001
0.042415;0.0346899;0.00951326;0.6195
0.042914;0.0341163;0.00933107;0.619437
0.043413;0.0335856;0.00880122;0.6195
0.043912;0.0331294;0.00834582;0.619723
0.044411;0.0326075;0.0082713;0.619405
0.04491;0.0321754;0.00846588;0.619405
0.045409;0.0317449;0.00815125;0.619405
0.045908;0.0311806;0.00826302;0.619405
0.046407;0.0306277;0.0080022;0.619405
0.046906;0.0301472;0.0075344;0.619405
0.047405;0.0297161;0.00767517;0.619405
0.047904;0.0292076;0.00697138;0.619437
0.048403;0.0286551;0.00622623;0.619405
0.048902;0.0282108;0.00627177;0.619405
0.049401;0.0276426;0.00617656;0.619405
0.0499;0.0271522;0.00619726;0.619405
0.050399;0.0266753;0.00613102;0.619691
0.050898;0.0261316;0.00587023;0.619659
0.051397;0.0257032;0.00506298;0.619405
0.051896;0.025283;0.00490981;0.619405
0.052395;0.0247686;0.00426813;0.619405
0.052894;0.0242328;0.00414807;0.619405
0.053393;0.0238599;0.00434265;0.619405
0.053892;0.0233455;0.00411081;0.619405
0.054391;0.0228572;0.00405699;0.619405
0.05489;0.0224041;0.00382103;0.619405
0.055389;0.021893;0.00344018;0.619405
0.055888;0.0214006;0.00388313;0.6195
0.056387;0.0208823;0.00363474;0.619405
0.056886;0.0203939;0.00258738;0.619405
0.057385;0.0199271;0.00263292;0.6195
0.057884;0.0194238;0.00205334;0.619405
0.058383;0.0189926;0.0016435;0.619405
0.058882;0.0186086;0.00197882;0.619628
0.059381;0.0180451;0.00184221;0.6195
0.05988;0.017602;0.00184221;0.619405
0.060379;0.0171964;0.00164764;0.619405
0.060878;0.0167168;0.00113844;0.619405
0.061377;0.0162559;0.000186291;0.619405
0.061876;0.0158206;6.62368e-05;0.619628
0.062375;0.0153005;8.2796e-05;0.619819
0.062874;0.0147075;-2.0699e-05;0.6195
0.063373;0.0142298;-0.000194571;0.619405
0.063872;0.0137956;-0.00019871;0.619437
0.064371;0.0133011;-0.000972851;0.619405
0.06487;0.0128531;-0.00112602;0.619405
0.065369;0.0124376;-0.000848658;0.619405
0.065868;0.0119403;-0.00106393;0.619405
0.066367;0.011359;-0.00206576;0.619405
0.066866;0.0108794;-0.00216511;0.619405
0.067365;0.0104362;-0.00207404;0.619405
0.067864;0.00982541;-0.00250872;0.619405
0.068363;0.009327;-0.00217753;0.619405
0.068862;0.00886116;-0.00257081;0.619405
0.069361;0.00832929;-0.00294754;0.619405
0.06986;0.00787233;-0.00289372;0.619405
0.070359;0.00739671;-0.00364716;0.619596
0.070858;0.00703745;-0.00350226;0.621537
0.071357;0.00652918;-0.00380447;0.619978
0.071856;0.00601406;-0.00412323;0.620137
0.072355;0.00556995;-0.00416463;0.619405
0.072854;0.00507749;-0.00417705;0.6195
0.073353;0.00450608;-0.00442958;0.619532
0.073852;0.00409258;-0.00502985;0.619405
0.074351;0.00361396;-0.00600683;0.619405
0.07485;0.00296064;-0.00633387;0.619405
0.075349;0.00250273;-0.00630903;0.619405
0.075848;0.00193132;-0.00641666;0.619405
0.076347;0.00149019;-0.00632145;0.619405
0.076846;0.0010303;-0.00664021;0.619405
0.077345;0.000583244;-0.00710801;0.619405
0.077844;0.00013619;-0.00730258;0.619405
0.078343;-0.000353302;-0.00798151;0.619405
0.078842;-0.000874372;-0.0082092;0.619405
0.079341;-0.00129775;-0.00827544;0.619405
0.07984;-0.00181289;-0.00815124;0.619405
0.080339;-0.00235174;-0.00842862;0.619405
0.080838;-0.00281459;-0.00877224;0.619405
0.081337;-0.00333467;-0.00876393;0.619405
0.081836;-0.00384586;-0.00940149;0.619405
0.082335;-0.00425836;-0.0100431;0.619405
0.082834;-0.00475479;-0.0102211;0.619405
0.083333;-0.00527981;-0.0102087;0.619405
0.083832;-0.00572885;-0.0102584;0.619405
0.084331;-0.00622819;-0.0102294;0.619405
0.08483;-0.00674534;-0.0103288;0.619405
0.085329;-0.00725262;-0.0103329;0.619405
0.085828;-0.00772132;-0.0103288;0.619405
0.086327;-0.0082612;-0.0106392;0.619405
0.086826;-0.00878122;-0.0122082;0.619405
0.087325;-0.00924806;-0.0124193;0.619405
0.087824;-0.00976419;-0.0128044;0.619405
0.088323;-0.0102457;-0.0126802;0.619596
0.088822;-0.0107432;-0.0126181;0.619405
0.089321;-0.0111942;-0.0126139;0.619405
0.08982;-0.0117597;-0.0140919;0.619405
0.090319;-0.0122185;-0.0142078;0.619405
0.090818;-0.0127179;-0.0143651;0.619405
0.091317;-0.0133051;-0.0146756;0.619405
0.091816;-0.0138203;-0.0150275;0.619405
0.092315;-0.0142081;-0.0153131;0.619405
0.092814;-0.0146246;-0.0157436;0.619405
0.093313;-0.0151712;-0.0164391;0.619405
0.093812;-0.0156341;-0.0157561;0.619405
0.094311;-0.0161118;-0.016377;0.619405
0.09481;-0.0166566;-0.0164722;0.619405
0.095309;-0.017079;-0.016613;0.619405
0.095808;-0.0175042;-0.0166254;0.619437
0.096307;-0.0180154;-0.0168614;0.619468
0.096806;-0.0185297;-0.0176066;0.619405
0.097305;-0.0189096;-0.0177928;0.619405
0.097804;-0.0193261;-0.0173251;0.619405
0.098303;-0.0197712;-0.0182731;0.619405
0.098802;-0.0202942;-0.0185711;0.619405
0.099301;-0.0207531;-0.0186084;0.619405
0.0998;-0.0213028;-0.0186746;0.619437
0.100299;-0.0217734;-0.0188319;0.619246
0.100798;-0.0222878;-0.0204091;0.619405
0.101297;-0.0228294;-0.0202932;0.619405
0.101796;-0.0232745;-0.0206203;0.619405
0.102295;-0.0237325;-0.0205582;0.619468
0.102794;-0.0242002;-0.0206699;0.619405
0.103293;-0.024668;-0.020761;0.619405
0.103792;-0.0250955;-0.0208521;0.619405
0.104291;-0.0255345;-0.0209473;0.619405
0.10479;-0.0260813;-0.02156;0.619405
0.105289;-0.0266181;-0.0216512;0.619405
0.105788;-0.0270604;-0.0219161;0.619405
0.106287;-0.0274925;-0.0220196;0.619405
0.106786;-0.0280915;-0.0225992;0.619182
0.107285;-0.0285505;-0.0227234;0.619405
0.107784;-0.0290162;-0.0227234;0.619564
0.108283;-0.0295138;-0.022711;0.619405
0.108782;-0.0299913;-0.0227648;0.619405
0.109281;-0.0304352;-0.0227483;0.619469
0.10978;-0.0309211;-0.0227317;0.619468
0.110279;-0.0313462;-0.0231912;0.619405
0.110778;-0.0318458;-0.0236589;0.619405
0.111277;-0.0324141;-0.0243585;0.619405
0.111776;-0.0329409;-0.024077;0.619405
0.112275;-0.0334494;-0.0244703;0.619405
0.112774;-0.0338607;-0.0247186;0.619405
0.113273;-0.0344826;-0.0248428;0.619405
0.113772;-0.0349404;-0.0248304;0.619087
0.114271;-0.035336;-0.0248718;0.619405
0.11477;-0.0359274;-0.025555;0.619405
0.115269;-0.0363842;-0.0256958;0.619405
0.115768;-0.0367901;-0.026412;0.619405
0.116267;-0.0372686;-0.0262671;0.619405
0.116766;-0.0377936;-0.0268219;0.619405
0.117265;-0.0382949;-0.026855;0.619405
0.117764;-0.0388525;-0.0277119;0.619405
0.118263;-0.0393084;-0.0273849;0.619405
0.118762;-0.0398353;-0.0281713;0.619564
0.119261;-0.0402778;-0.0282583;0.619596
0.11976;-0.0408369;-0.0287964;0.619405
0.120259;-0.0412771;-0.0289868;0.619405
0.120758;-0.0417471;-0.0291483;0.619405
0.121257;-0.0422829;-0.0295251;0.619405
0.121756;-0.0428345;-0.0298521;0.619405
0.122255;-0.0433092;-0.0301172;0.619405
0.122754;-0.0437622;-0.0305146;0.619405
0.123253;-0.044215;-0.0305849;0.620233
0.123752;-0.0447431;-0.0307339;0.6195
0.124251;-0.0452457;-0.0309865;0.619691
0.12475;-0.0457371;-0.0309244;0.620932
0.125249;-0.0461225;-0.0309865;0.620297
0.125748;-0.0466726;-0.0310527;0.620106
0.126247;-0.0471188;-0.0313383;0.620264
0.126746;-0.047599;-0.0320917;0.619468
0.127245;-0.0481172;-0.0325429;0.619437
0.127744;-0.048612;-0.0327002;0.619405
0.128243;-0.0489484;-0.0328203;0.619405
0.128742;-0.0484726;-0.0325471;0.619405
0.129241;-0.0479178;-0.0318102;0.619405
0.12974;-0.0474691;-0.0317068;0.619405
0.130239;-0.0469933;-0.0312721;0.619405
0.130738;-0.0464492;-0.0309865;0.619405
0.131237;-0.046045;-0.0310155;0.619405
0.131736;-0.0455881;-0.0309451;0.619437
0.132235;-0.0451152;-0.0309824;0.619405
0.132734;-0.0446068;-0.0307588;0.619755
0.133233;-0.0442014;-0.030589;0.620169
0.133732;-0.0437029;-0.0305353;0.619405
0.134231;-0.0431019;-0.0293553;0.619532
0.13473;-0.0426472;-0.0290779;0.620073
0.135229;-0.0420224;-0.0289744;0.619978
0.135728;-0.0414843;-0.0289951;0.62036
0.136227;-0.0409218;-0.0289247;0.619405
0.136726;-0.0405788;-0.0287923;0.620615
0.137225;-0.0400811;-0.0284901;0.621538
0.137724;-0.0395581;-0.0274263;0.620264
0.138223;-0.0391407;-0.0271117;0.620996
0.138722;-0.0386739;-0.0272855;0.619691
0.139221;-0.0381913;-0.0272151;0.6195
0.13972;-0.037701;-0.0269047;0.619468
0.140219;-0.0372212;-0.0267101;0.619564
0.140718;-0.0366961;-0.0265983;0.619468
0.141217;-0.0361957;-0.0263747;0.619755
0.141716;-0.0357773;-0.0264865;0.619405
0.142215;-0.0352098;-0.0259773;0.619405
0.142714;-0.0347185;-0.0249381;0.619405
0.143213;-0.0342743;-0.0249339;0.619405
0.143712;-0.0338065;-0.0249919;0.619405
0.144211;-0.0332904;-0.0247973;0.61915
0.14471;-0.0328581;-0.0243668;0.6195
0.145209;-0.0324003;-0.024313;0.619405
0.145708;-0.0318347;-0.023274;0.619405
0.146207;-0.0313068;-0.0227979;0.619437
0.146706;-0.0308676;-0.0226903;0.619405
0.147205;-0.0303633;-0.0226613;0.619405
0.147704;-0.0299943;-0.0227234;0.619405
0.148203;-0.0293952;-0.022653;0.619405
0.148702;-0.0289413;-0.0226779;0.619405
0.149201;-0.0284418;-0.0224295;0.619532
0.1497;-0.0279484;-0.0225702;0.619405
0.150199;-0.0274354;-0.0218126;0.619405
0.150698;-0.02693;-0.0207983;0.619691
0.151197;-0.0264741;-0.0206285;0.620169
0.151696;-0.0260349;-0.0201484;0.619437
0.152195;-0.0254734;-0.0204506;0.619405
0.152694;-0.0249996;-0.0202311;0.619405
0.153193;-0.0245347;-0.0202643;0.619405
0.153692;-0.0241016;-0.0200697;0.619405
0.154191;-0.0235726;-0.0191714;0.619405
0.15469;-0.0230722;-0.0186415;0.619405
0.155189;-0.0226311;-0.0188402;0.619405
0.155688;-0.0221376;-0.0185918;0.619405
0.156187;-0.0216019;-0.0185918;0.619405
0.156686;-0.0211538;-0.0183269;0.619405
0.157185;-0.0207017;-0.0178632;0.619405
0.157684;-0.0202351;-0.0183352;0.619405
0.158183;-0.019711;-0.0174575;0.619405
0.158682;-0.0192797;-0.0171181;0.619405
0.159181;-0.0187488;-0.0167165;0.6195
0.15968;-0.0183411;-0.0165716;0.619405
0.160179;-0.0178348;-0.016526;0.619405
0.160678;-0.0174037;-0.0164888;0.6195
0.161177;-0.0169073;-0.0165012;0.619405
0.161676;-0.0164641;-0.0164639;0.619405
0.162175;-0.016022;-0.0161038;0.619405
0.162674;-0.0154791;-0.0156443;0.619405
0.163173;-0.0150401;-0.0150895;0.619405
0.163672;-0.014593;-0.0147128;0.619405
0.164171;-0.014143;-0.014601;0.619405
0.16467;-0.0136545;-0.0144727;0.619405
0.165169;-0.0131284;-0.0143775;0.619405
0.165668;-0.0126251;-0.0142823;0.619405
0.166167;-0.0120913;-0.0135909;0.619405
0.166666;-0.0115959;-0.0133177;0.619405
0.167165;-0.0110955;-0.0128209;0.619405
0.167664;-0.0106139;-0.0130362;0.619405
0.168163;-0.0100464;-0.0126263;0.619405
0.168662;-0.0096241;-0.0124525;0.619405
0.169161;-0.00913256;-0.01244;0.619405
0.16966;-0.00865494;-0.0123945;0.619405
0.170159;-0.00822959;-0.0120509;0.619405
0.170658;-0.00771544;-0.0112354;0.619405
0.171157;-0.00720917;-0.0109332;0.619405
0.171656;-0.00673742;-0.0108214;0.619405
0.172155;-0.00617987;-0.0104861;0.619405
0.172654;-0.00566173;-0.010515;0.619405
0.173153;-0.00523637;-0.0103288;0.619405
0.173652;-0.00470545;-0.0100431;0.619405
0.174151;-0.00419817;-0.00971607;0.619405
0.17465;-0.00361199;-0.00908685;0.619405
0.175149;-0.00316198;-0.00925242;0.619405
0.175648;-0.00270799;-0.00940978;0.619405
0.176147;-0.00220962;-0.00869771;0.619405
0.176646;-0.00177935;-0.00853626;0.619405
0.177145;-0.00127406;-0.00826716;0.619405
0.177644;-0.000858582;-0.0083748;0.619532
0.178143;-0.000368105;-0.00826302;0.619405
0.178642;0.000193428;-0.00801463;0.620391
0.179141;0.000674036;-0.00799806;0.619405
0.17964;0.00113688;-0.00729845;0.619405
0.180139;0.00160763;-0.00642079;0.619405
0.180638;0.00208231;-0.00631731;0.619405
0.181137;0.00255405;-0.00626763;0.619405
0.181636;0.00308301;-0.00618484;0.619405
0.182135;0.00357744;-0.00612275;0.619405
0.182634;0.00410342;-0.00549765;0.619405
0.183133;0.00463142;-0.00552251;0.619405
0.183632;0.00504198;-0.00488082;0.619405
0.184131;0.00550384;-0.00480632;0.619405
0.18463;0.0060762;-0.00455792;0.619405
0.185129;0.00651736;-0.00421431;0.619405
0.185628;0.00701971;-0.00408597;0.619405
0.186127;0.00756837;-0.00409839;0.619405
0.186626;0.00796805;-0.00357679;0.619405
0.187125;0.00842895;-0.00303449;0.619405
0.187624;0.00904475;-0.0027364;0.619405
0.188123;0.00949573;-0.00300549;0.619405
0.188622;0.0099142;-0.00250872;0.619405
0.189121;0.0104629;-0.0020906;0.619405
0.18962;0.0110097;-0.00203678;0.619405
0.190119;0.0114133;-0.00206576;0.619405
0.190618;0.0119008;-0.00166833;0.619405
0.191117;0.0124485;-0.00154414;0.619405
0.191616;0.0129508;-0.000823819;0.619405
0.192115;0.013391;-0.000434679;0.619405
0.192614;0.0138993;-0.000248388;0.619405
0.193113;0.014371;-4.1398e-06;0.619405
0.193612;0.0149275;0.000140753;0.619405
0.194111;0.0154397;0.000393281;0.619468
0.19461;0.0159045;0.000442959;0.619405
0.195109;0.016327;0.00043054;0.619437
0.195608;0.0167484;0.00175527;0.6195
0.196107;0.0171797;0.00190016;0.619691
0.196606;0.0176601;0.00197054;0.619405
0.197105;0.0180263;0.00216511;0.6195
0.197604;0.0185504;0.00222307;0.619628
0.198103;0.0191721;0.00243007;0.619405
0.198602;0.0196172;0.00275296;0.619405
0.199101;0.0200614;0.00380033;0.619437
0.1996;0.0206395;0.00382103;0.619914
0.200099;0.0210926;0.00377135;0.619405
0.200598;0.0215288;0.00411495;0.619405
0.201097;0.0219866;0.00407769;0.619405
0.201596;0.0224733;0.00416877;0.619405
0.202095;0.0228926;0.00416877;0.619405
0.202594;0.0234661;0.00415221;0.619405
0.203093;0.0238578;0.00443373;0.619405
0.203592;0.0242948;0.00474008;0.619405
0.204091;0.0248398;0.00502987;0.619405
0.20459;0.0253904;0.00585366;0.619405
0.205089;0.0258307;0.0058992;0.619405
0.205588;0.0263072;0.00587435;0.619405
0.206087;0.026868;0.0061807;0.619437
0.206586;0.027313;0.00621795;0.619405
0.207085;0.0277776;0.00625107;0.619405
0.207584;0.028289;0.00676027;0.619405
0.208083;0.0288089;0.0067106;0.619405
0.208582;0.0292829;0.007522;0.619883
0.209081;0.0297219;0.00794426;0.6195
0.20958;0.0302912;0.00820506;0.619437
0.210079;0.030691;0.00803533;0.619405
0.210578;0.0312919;0.00826302;0.619691
0.211077;0.0318033;0.00827958;0.619723
0.211576;0.0323469;0.00832098;0.619405
0.212075;0.0327928;0.00844932;0.619405
0.212574;0.0332945;0.00834996;0.619405
0.213073;0.0337808;0.00873082;0.619405
0.213572;0.0342497;0.00931871;0.619405
0.214071;0.0346849;0.0092897;0.619405
0.21457;0.0351683;0.0101425;0.619405
0.215069;0.0356341;0.0101839;0.619405
0.215568;0.0361198;0.010395;0.619405
0.216067;0.0366706;0.0103909;0.619405
0.216566;0.0371699;0.0102915;0.619405
0.217065;0.0376436;0.010631;0.619405
0.217564;0.0381627;0.0111774;0.619405
0.218063;0.0386759;0.0113264;0.619405
0.218562;0.0392137;0.0118356;0.619405
0.219061;0.0396006;0.0123945;0.619405
0.21956;0.0401405;0.0124028;0.619405
0.220059;0.0405479;0.0126512;0.619405
0.220558;0.041057;0.0126553;0.619468
0.221057;0.0415595;0.0129079;0.619405
0.221556;0.0419663;0.0127795;0.619405
0.222055;0.0424664;0.0138724;0.619532
0.222554;0.0429836;0.0134543;0.619437
0.223053;0.0435451;0.0139304;0.619914
0.223552;0.0440107;0.0143071;0.619468
0.224051;0.0444292;0.0144603;0.620105
0.22455;0.0449445;0.0145348;0.619691
0.225049;0.0453928;0.0149985;0.6195
0.225548;0.0458584;0.0161162;0.619405
0.226047;0.0463338;0.0162942;0.6195
0.226546;0.0468187;0.0163605;0.619405
0.227045;0.047249;0.0164184;0.619405
0.227544;0.0477106;0.016526;0.619405
0.228043;0.0481893;0.0166751;0.619405
0.228542;0.0479316;0.0165799;0.619405
0.229041;0.0474336;0.0165302;0.619405
0.22954;0.046943;0.0162321;0.619405
0.230039;0.0464927;0.0152676;0.619405
0.230538;0.0459858;0.0150192;0.619405
0.231037;0.0455417;0.014659;0.619405
0.231536;0.0452179;0.0147542;0.619405
0.232035;0.0446966;0.0144562;0.619405
0.232534;0.0441481;0.0140463;0.619405
0.233033;0.0437799;0.0136323;0.619405
0.233532;0.043175;0.0132846;0.619405
0.234031;0.0427282;0.0134874;0.619405
0.23453;0.0422967;0.0133881;0.619405
0.235029;0.041747;0.0130983;0.619405
0.235528;0.0413066;0.0128747;0.619405
0.236027;0.0408252;0.0124276;0.619405
0.236526;0.0403665;0.0123324;0.619405
0.237025;0.0398767;0.0122827;0.619405
0.237524;0.0393943;0.0123241;0.619182
0.238023;0.0389176;0.012113;0.619405
0.238522;0.0384479;0.0112644;0.619405
0.239021;0.0379052;0.0108214;0.619405
0.23952;0.037461;0.0104654;0.618864
0.240019;0.0369726;0.0103743;0.619405
0.240518;0.0364651;0.0102956;0.619405
0.241017;0.0359619;0.0102418;0.619405
0.241516;0.0355058;0.0102584;0.619405
0.242015;0.0350085;0.0102543;0.619405
0.242514;0.0344975;0.00953396;0.619405
0.243013;0.0339831;0.00858179;0.619405
0.243512;0.0334711;0.00861906;0.619405
0.244011;0.0330179;0.00834168;0.619405
0.24451;0.0325957;0.00826302;0.619405
0.245009;0.03213;0.00826302;0.619405
0.245508;0.0315702;0.00819678;0.619405
0.246007;0.0310691;0.00763376;0.619405
0.246506;0.0305448;0.00781592;0.619405
0.247005;0.03002;0.00794011;0.619405
0.247504;0.0295217;0.00750127;0.619405
0.248003;0.0290123;0.00620139;0.619405
0.248502;0.0285988;0.00619312;0.619405
0.249001;0.0280845;0.00619726;0.619405
0.2495;0.0276751;0.00630903;0.619405
0.249999;0.0271235;0.00619726;0.619405
0.250498;0.0266023;0.00616828;0.619405
0.250997;0.0261228;0.00598198;0.619405
0.251496;0.025648;0.00582469;0.619405
0.251995;0.0250766;0.00544797;0.619405
0.252494;0.0246304;0.00498431;0.619405
0.252993;0.0241173;0.00413151;0.619405
0.253492;0.0236723;0.00424743;0.619405
0.253991;0.0232192;0.00413151;0.619405
0.25449;0.0227122;0.00412737;0.619405
