t;vds;corrente;vg
0.000499;0.0210453;0.00442124;0.51582
0.000998;0.0214666;0.00411495;0.524112
0.001497;0.0220152;0.00415635;0.524112
0.001996;0.0223776;0.00413151;0.524112
0.002495;0.0228176;0.00416877;0.524048
0.002994;0.0234049;0.00463656;0.524112
0.003493;0.0238983;0.00461588;0.524112
0.003992;0.0243718;0.00564254;0.524112
0.004491;0.0248388;0.00584539;0.524112
0.00499;0.0254111;0.00607307;0.524112
0.005489;0.025807;0.0061186;0.523698
0.005988;0.0262263;0.00619726;0.524112
0.006487;0.0267593;0.00630489;0.524112
0.006986;0.0271985;0.00627591;0.524112
0.007485;0.027682;0.00630903;0.524112
0.007984;0.0281922;0.00629661;0.524112
0.008483;0.0286077;0.00675198;0.524112
0.008982;0.0291604;0.0077;0.524112
0.009481;0.0296538;0.00792355;0.523921
0.00998;0.0301323;0.00780349;0.524112
0.010479;0.0306219;0.00818437;0.524112
0.010978;0.0312229;0.00826302;0.524112
0.011477;0.0317213;0.00842448;0.523921
0.011976;0.0322128;0.00869772;0.524112
0.012475;0.0326498;0.00850314;0.524112
0.012974;0.0331769;0.00923591;0.523921
0.013473;0.0336388;0.00976576;0.524112
0.013972;0.034071;0.010159;0.524112
0.014471;0.0345221;0.0100928;0.524112
0.01497;0.0350776;0.0101797;0.524048
0.015469;0.0355572;0.0105357;0.524112
0.015968;0.0360734;0.0109415;0.524112
0.016467;0.0366824;0.0112685;0.524048
0.016966;0.037167;0.0120136;0.524112
0.017465;0.0376347;0.0123821;0.524112
0.017964;0.038219;0.0124235;0.524112
0.018463;0.0386532;0.012084;0.523984
0.018962;0.0390893;0.0123945;0.524112
0.019461;0.0395749;0.0126677;0.524112
0.01996;0.0400002;0.0128706;0.524112
0.020459;0.0404335;0.0130652;0.524112
0.020958;0.0409416;0.0135164;0.524112
0.021457;0.0415338;0.013918;0.524112
0.021956;0.041983;0.0139842;0.524112
0.022455;0.0424446;0.0143941;0.52338
0.022954;0.0430162;0.0149612;0.524112
0.023453;0.0435807;0.0154704;0.524112
0.023952;0.0439072;0.0164267;0.524112
0.024451;0.0444007;0.0163729;0.524112
0.02495;0.0449376;0.0165178;0.524112
0.025449;0.0453671;0.0168738;0.524112
0.025948;0.0457786;0.0165633;0.524112
0.026447;0.046321;0.0169856;0.524112
0.026946;0.0467565;0.0172381;0.524112
0.027445;0.0472066;0.0178135;0.524112
0.027944;0.0477056;0.0183765;0.524112
0.028443;0.0482377;0.0184138;0.524112
0.028942;0.0481507;0.0184552;0.524112
0.029441;0.0477403;0.01836;0.524112
0.02994;0.0472164;0.017888;0.524112
0.030439;0.046795;0.0176521;0.524112
0.030938;0.0462678;0.0174203;0.524112
0.031437;0.0458062;0.017027;0.524112
0.031936;0.045373;0.0165178;0.524112
0.032435;0.0449098;0.0164515;0.524112
0.032934;0.044368;0.0160044;0.524112
0.033433;0.0439596;0.0153255;0.524112
0.033932;0.0434533;0.0149653;0.524112
0.034431;0.042877;0.0145514;0.524112
0.03493;0.042507;0.0143899;0.524112
0.035429;0.0419682;0.0140422;0.524112
0.035928;0.041509;0.0136323;0.524112
0.036427;0.0410491;0.0129451;0.524112
0.036926;0.0405679;0.0127961;0.524112
0.037425;0.040008;0.0123945;0.524112
0.037924;0.0396162;0.0123945;0.524112
0.038423;0.0390973;0.0121627;0.523571
0.038922;0.0386009;0.0121337;0.523443
0.039421;0.038069;0.0117818;0.524112
0.03992;0.0376377;0.011877;0.524112
0.040419;0.037166;0.0112809;0.524112
0.040918;0.036627;0.0108007;0.524112
0.041417;0.0361711;0.0106765;0.524112
0.041916;0.0357309;0.0103246;0.524112
0.042415;0.0350816;0.0099272;0.524112
0.042914;0.0346938;0.00978651;0.524112
0.043413;0.034218;0.00965817;0.524112
0.043912;0.0336231;0.00888815;0.524112
0.044411;0.0331462;0.0084369;0.523857
0.04491;0.0327832;0.0083748;0.523603
0.045409;0.0322257;0.00850314;0.524112
0.045908;0.0316975;0.00826302;0.524112
0.046407;0.0312664;0.00820506;0.524112
0.046906;0.0306761;0.0079608;0.524112
0.047405;0.0301167;0.00772484;0.524112
0.047904;0.0296115;0.00654913;0.524112
0.048403;0.0292145;0.0065657;0.524112
0.048902;0.0287133;0.00664021;0.524112
0.049401;0.0282306;0.00632145;0.524112
0.0499;0.0278064;0.00645806;0.524112
0.050399;0.0272815;0.00619726;0.524112
0.050898;0.0267691;0.0062014;0.524112
0.051397;0.0263251;0.00645806;0.524112
0.051896;0.0258206;0.00620139;0.524112
0.052395;0.0252652;0.00616;0.524112
0.052894;0.0247666;0.00593646;0.524112
0.053393;0.0242506;0.00564256;0.524112
0.053892;0.0237789;0.0049098;0.524112
0.054391;0.023387;0.00452066;0.524112
0.05489;0.0230239;0.00494708;0.524112
0.055389;0.0224534;0.00426399;0.524112
0.055888;0.0219403;0.00423501;0.523984
0.056387;0.0215831;0.00413151;0.524112
0.056886;0.0210501;0.00413151;0.524112
0.057385;0.0204166;0.0033284;0.524112
0.057884;0.0199241;0.00256254;0.524112
0.058383;0.0194761;0.00216511;0.524112
0.058882;0.0189985;0.00211957;0.524112
0.059381;0.0184329;0.00195398;0.524112
0.05988;0.0180668;0.00182151;0.523794
0.060379;0.017598;0.001925;0.523634
0.060878;0.0171116;0.00152758;0.524112
0.061377;0.0167178;0.0012792;0.52303
0.061876;0.0163171;0.00144479;0.523412
0.062375;0.0158167;0.000794841;0.523539
0.062874;0.0153193;0.000277367;0.524112
0.063373;0.0148536;4.1398e-06;0.524112
0.063872;0.0143117;-4.1398e-05;0.524112
0.064371;0.0138509;-0.000140753;0.524112
0.06487;0.0134304;-0.000235969;0.524112
0.065369;0.0129389;-0.000298066;0.524112
0.065868;0.0123458;-0.000885916;0.524112
0.066367;0.0119265;-0.000976991;0.524112
0.066866;0.0114755;-0.00187532;0.52408
0.067365;0.0108616;-0.00206576;0.524112
0.067864;0.0104332;-0.00227275;0.52338
0.068363;0.00999019;-0.00216097;0.524112
0.068862;0.00949085;-0.00217753;0.524112
0.069361;0.00895787;-0.00234727;0.524112
0.06986;0.00844179;-0.0026619;0.524112
0.070359;0.00798778;-0.00320835;0.524048
0.070858;0.00746283;-0.00264533;0.524112
0.071357;0.00706114;-0.00278194;0.524112
0.071856;0.00655484;-0.00402801;0.524112
0.072355;0.00598051;-0.00406113;0.524112
0.072854;0.00547027;-0.00411909;0.524112
0.073353;0.00508144;-0.00421017;0.524112
0.073852;0.00457813;-0.00417705;0.524112
0.074351;0.00408074;-0.00409425;0.524112
0.07485;0.00368994;-0.00407355;0.524112
0.075349;0.00313829;-0.00423501;0.524112
0.075848;0.00257575;-0.00432194;0.524112
0.076347;0.00212573;-0.00472351;0.524112
0.076846;0.00167968;-0.0056384;0.524112
0.077345;0.00119116;-0.00610205;0.524112
0.077844;0.000727328;-0.0061186;0.524112
0.078343;0.00024968;-0.0062014;0.524112
0.078842;-0.00026547;-0.00623037;0.524112
0.079341;-0.000772724;-0.00726947;0.524112
0.07984;-0.00121682;-0.00692171;0.524112
0.080339;-0.00173493;-0.0069507;0.524112
0.080838;-0.00217311;-0.00819678;0.524112
0.081337;-0.00263201;-0.00806016;0.524112
0.081836;-0.00308894;-0.00815538;0.524112
0.082335;-0.00358632;-0.0083127;0.524112
0.082834;-0.00406494;-0.00832512;0.524112
0.083333;-0.00451199;-0.00852798;0.524112
0.083832;-0.00508935;-0.0089047;0.524112
0.084331;-0.00560451;-0.00972023;0.524112
0.08483;-0.00612554;-0.00969952;0.524112
0.085329;-0.00665257;-0.0103702;0.524112
0.085828;-0.00719144;-0.0103246;0.524112
0.086327;-0.00769468;-0.0104778;0.524112
0.086826;-0.00809834;-0.0106972;0.524112
0.087325;-0.0086184;-0.0107055;0.524112
0.087824;-0.0089875;-0.0111029;0.524112
0.088323;-0.00955297;-0.0115459;0.524112
0.088822;-0.0100543;-0.0120923;0.524112
0.089321;-0.0105734;-0.0122248;0.524112
0.08982;-0.0110718;-0.0123945;0.524112
0.090319;-0.0115712;-0.0122538;0.524112
0.090818;-0.0121287;-0.0124069;0.524112
0.091317;-0.0126399;-0.0125435;0.524112
0.091816;-0.0131403;-0.0128747;0.524112
0.092315;-0.0136663;-0.0130238;0.524112
0.092814;-0.0141322;-0.0134253;0.524112
0.093313;-0.0145161;-0.0133011;0.524112
0.093812;-0.0150064;-0.0142533;0.524112
0.094311;-0.0155196;-0.0143692;0.524112
0.09481;-0.0159687;-0.0144851;0.524112
0.095309;-0.0164622;-0.0145182;0.524112
0.095808;-0.0169547;-0.0147708;0.524112
0.096307;-0.0173651;-0.0148784;0.524112
0.096806;-0.0178319;-0.0160086;0.524112
0.097305;-0.0183915;-0.0161866;0.524112
0.097804;-0.018802;-0.016526;0.524112
0.098303;-0.019258;-0.0165343;0.524112
0.098802;-0.0198018;-0.0165426;0.524112
0.099301;-0.0202331;-0.0167206;0.524112
0.0998;-0.0207017;-0.0167372;0.524112
0.100299;-0.0211518;-0.0168986;0.524112
0.100798;-0.0216857;-0.0179626;0.524112
0.101297;-0.0221327;-0.0184925;0.524144
0.101796;-0.0225848;-0.0184428;0.524112
0.102295;-0.0231274;-0.0185546;0.524112
0.102794;-0.023621;-0.018389;0.524112
0.103293;-0.0240334;-0.0185835;0.524112
0.103792;-0.0245683;-0.0188154;0.524112
0.104291;-0.0250668;-0.0189023;0.524112
0.10479;-0.0254644;-0.0193121;0.524112
0.105289;-0.0259589;-0.0198461;0.524112
0.105788;-0.0265332;-0.020405;0.524112
0.106287;-0.0269558;-0.0204754;0.524112
0.106786;-0.0273889;-0.020641;0.524112
0.107285;-0.0279178;-0.0206575;0.524112
0.107784;-0.0284202;-0.0207942;0.524112
0.108283;-0.0288572;-0.0211999;0.524112
0.108782;-0.029422;-0.0216429;0.524144
0.109281;-0.0299854;-0.0221645;0.524112
0.10978;-0.0302872;-0.0226655;0.524112
0.110279;-0.0308234;-0.0227896;0.524112
0.110778;-0.0313768;-0.0226655;0.524112
0.111277;-0.0318487;-0.0226986;0.524112
0.111776;-0.0323746;-0.0234313;0.524112
0.112275;-0.0329508;-0.023543;0.524112
0.112774;-0.0333468;-0.0235968;0.524112
0.113273;-0.0337838;-0.0247145;0.524112
0.113772;-0.0343149;-0.024789;0.524112
0.114271;-0.0348694;-0.0248014;0.524112
0.11477;-0.0352749;-0.024789;0.524112
0.115269;-0.0357941;-0.0252941;0.524112
0.115768;-0.0363062;-0.0249422;0.524112
0.116267;-0.0368029;-0.0250581;0.524112
0.116766;-0.0372281;-0.0263416;0.524112
0.117265;-0.0377078;-0.0268219;0.524112
0.117764;-0.0382762;-0.0270951;0.524112
0.118263;-0.038741;-0.0269047;0.524112
0.118762;-0.039185;-0.026855;0.524112
0.119261;-0.0396735;-0.0271985;0.524112
0.11976;-0.0401247;-0.0270785;0.524112
0.120259;-0.0406198;-0.0270744;0.524112
0.120758;-0.0411517;-0.0272855;0.524112
0.121257;-0.0416257;-0.0281465;0.524112
0.121756;-0.0421912;-0.0285273;0.52408
0.122255;-0.0427427;-0.0286722;0.524112
0.122754;-0.043323;-0.0289206;0.524112
0.123253;-0.043703;-0.0290034;0.524112
0.123752;-0.0442219;-0.0292021;0.524112
0.124251;-0.044748;-0.0301543;0.524112
0.12475;-0.0451411;-0.0305642;0.524112
0.125249;-0.045603;-0.0306098;0.524112
0.125748;-0.0461206;-0.0306429;0.524112
0.126247;-0.046563;-0.0309865;0.524112
0.126746;-0.0470507;-0.0309865;0.523953
0.127245;-0.0475299;-0.0309865;0.524112
0.127744;-0.0481044;-0.0309865;0.524112
0.128243;-0.0485597;-0.0312224;0.524112
0.128742;-0.0488449;-0.0313177;0.524112
0.129241;-0.0484736;-0.0310486;0.524112
0.12974;-0.047902;-0.0310734;0.524112
0.130239;-0.0474779;-0.030825;0.524048
0.130738;-0.0470446;-0.0309865;0.523794
0.131237;-0.0464808;-0.0305683;0.524112
0.131736;-0.0459543;-0.0299888;0.524112
0.132235;-0.0456206;-0.0305683;0.524112
0.132734;-0.0450678;-0.0303407;0.524112
0.133233;-0.0445268;-0.0299349;0.524112
0.133732;-0.0440958;-0.0296658;0.524112
0.134231;-0.0435934;-0.0295458;0.524112
0.13473;-0.0431305;-0.0289289;0.524112
0.135229;-0.042582;-0.0287881;0.524112
0.135728;-0.042126;-0.0288916;0.524112
0.136227;-0.04159;-0.0286349;0.524112
0.136726;-0.0410175;-0.0275091;0.524112
0.137225;-0.0406202;-0.0270578;0.524112
0.137724;-0.0400426;-0.0269254;0.524112
0.138223;-0.0395294;-0.0272938;0.524112
0.138722;-0.0391269;-0.0268716;0.524112
0.139221;-0.0386206;-0.0270123;0.524112
0.13972;-0.038068;-0.0267887;0.524112
0.140219;-0.0376022;-0.0266231;0.524112
0.140718;-0.0372291;-0.0266521;0.524112
0.141217;-0.036696;-0.0262836;0.524112
0.141716;-0.0361326;-0.0254556;0.524112
0.142215;-0.035732;-0.0251948;0.524112
0.142714;-0.0351891;-0.0249919;0.524112
0.143213;-0.034684;-0.0248304;0.524112
0.143712;-0.0342141;-0.0247849;0.524112
0.144211;-0.0337858;-0.024491;0.524112
0.14471;-0.0332755;-0.0236383;0.524112
0.145209;-0.0328009;-0.0234312;0.524112
0.145708;-0.0322899;-0.0232822;0.524112
0.146207;-0.0317123;-0.0227938;0.524112
0.146706;-0.0311924;-0.0229387;0.524112
0.147205;-0.0308064;-0.0227814;0.524112
0.147704;-0.0303663;-0.0227524;0.524112
0.148203;-0.0297852;-0.0226903;0.524112
0.148702;-0.0294535;-0.0225413;0.524112
0.149201;-0.0290034;-0.0226944;0.524112
0.1497;-0.0284359;-0.0221852;0.524112
0.150199;-0.0279908;-0.0216345;0.524112
0.150698;-0.0275133;-0.0209556;0.524112
0.151197;-0.0269339;-0.0208521;0.524112
0.151696;-0.0263567;-0.0205996;0.524112
0.152195;-0.0259519;-0.0206575;0.524112
0.152694;-0.0254596;-0.0206782;0.524112
0.153193;-0.0250135;-0.0203512;0.524112
0.153692;-0.0244913;-0.0197178;0.524112
0.154191;-0.0240394;-0.0195647;0.524112
0.15469;-0.0235469;-0.0189934;0.524112
0.155189;-0.0231067;-0.0187574;0.524112
0.155688;-0.0226845;-0.018509;0.524112
0.156187;-0.0221515;-0.0183352;0.524112
0.156686;-0.0217025;-0.0181158;0.524112
0.157185;-0.0211567;-0.0179957;0.524112
0.157684;-0.0206662;-0.0181489;0.524112
0.158183;-0.0201867;-0.0176355;0.523794
0.158682;-0.0196449;-0.0168407;0.52408
0.159181;-0.0192412;-0.0168904;0.523921
0.15968;-0.0187073;-0.0165509;0.523634
0.160179;-0.018272;-0.0165012;0.521884
0.160678;-0.0177924;-0.0165219;0.523443
0.161177;-0.0174007;-0.0164308;0.524112
0.161676;-0.0169468;-0.016406;0.523889
0.162175;-0.0165066;-0.0149115;0.524112
0.162674;-0.0160052;-0.0152758;0.524112
0.163173;-0.0154801;-0.0151516;0.524112
0.163672;-0.0149878;-0.0147252;0.523252
0.164171;-0.0145743;-0.0146466;0.524112
0.16467;-0.0140443;-0.0144562;0.524112
0.165169;-0.013541;-0.0144272;0.524112
0.165668;-0.0130347;-0.014038;0.524112
0.166167;-0.01248;-0.0132597;0.524112
0.166666;-0.0120045;-0.0137193;0.523889
0.167165;-0.0115594;-0.0126595;0.524112
0.167664;-0.010979;-0.0123945;0.524112
0.168163;-0.0104865;-0.012378;0.524112
0.168662;-0.0100928;-0.0123448;0.523571
0.169161;-0.00962706;-0.0120261;0.523794
0.16966;-0.00909407;-0.0110987;0.524112
0.170159;-0.00857008;-0.0108297;0.524112
0.170658;-0.00808549;-0.011165;0.524112
0.171157;-0.00757928;-0.0106599;0.524112
0.171656;-0.00701475;-0.0103288;0.524112
0.172155;-0.00659136;-0.0102956;0.524112
0.172654;-0.00603873;-0.00977817;0.524112
0.173153;-0.00556205;-0.00981958;0.524112
0.173652;-0.00510512;-0.00943044;0.524112
0.174151;-0.0046255;-0.0091407;0.524112
0.17465;-0.00402251;-0.00886745;0.524112
0.175149;-0.00356856;-0.00859835;0.523953
0.175648;-0.00309586;-0.00830028;0.52408
0.176147;-0.00263891;-0.00825474;0.524112
0.176646;-0.0021356;-0.00834582;0.524112
0.177145;-0.0016402;-0.00808915;0.524112
0.177644;-0.00113491;-0.00815538;0.524112
0.178143;-0.000722394;-0.0080643;0.524112
0.178642;-0.000148032;-0.0075344;0.524112
0.179141;0.000304945;-0.00700038;0.524112
0.17964;0.000821081;-0.00634214;0.524112
0.180139;0.00122176;-0.00620968;0.524112
0.180638;0.00159381;-0.00616;0.524112
0.181137;0.00209119;-0.00604823;0.523475
0.181636;0.00256885;-0.00558457;0.524112
0.182135;0.00306229;-0.00575845;0.524112
0.182634;0.00360606;-0.00533621;0.524112
0.183133;0.00417152;-0.00452893;0.524112
0.183632;0.00464129;-0.00439233;0.524112
0.184131;0.00514363;-0.00411081;0.524112
0.18463;0.00572688;-0.00386657;0.524112
0.185129;0.00620351;-0.0039328;0.524112
0.185628;0.0065677;-0.00365959;0.524112
0.186127;0.00702268;-0.00341119;0.524112
0.186626;0.0075516;-0.00337808;0.523984
0.187125;0.00790587;-0.00248801;0.524112
0.187624;0.00847631;-0.00246319;0.524112
0.188123;0.00904278;-0.00218167;0.524112
0.188622;0.00943356;-0.00206576;0.524112
0.189121;0.0100366;-0.00208232;0.524112
0.18962;0.0105774;-0.00188774;0.524112
0.190119;0.011063;-0.00199124;0.524112
0.190618;0.0115298;-0.00150688;0.524112
0.191117;0.0120221;-0.00157726;0.524112
0.191616;0.0125659;-0.000989411;0.524112
0.192115;0.0129952;-0.000190431;0.524112
0.192614;0.0134216;-3.72582e-05;0.524112
0.193113;0.0139841;0.00043054;0.524112
0.193612;0.0143838;0.000364303;0.524112
0.194111;0.0148457;0.000480217;0.524112
0.19461;0.0154012;0.000471938;0.524112
0.195109;0.0158759;0.000633389;0.524112
0.195608;0.0163378;0.00154414;0.524112
0.196107;0.0168629;0.00081968;0.52408
0.196606;0.0173148;0.00182565;0.524112
0.197105;0.0177746;0.00192086;0.524112
0.197604;0.0182424;0.00206162;0.524112
0.198103;0.0187122;0.00209887;0.524112
0.198602;0.0192274;0.00263291;0.524112
0.199101;0.0195975;0.00252114;0.524112
0.1996;0.020095;0.00327872;0.524112
0.200099;0.0205606;0.00405285;0.524112
0.200598;0.0210561;0.00380861;0.524112
0.201097;0.0215899;0.00406527;0.524112
0.201596;0.0220735;0.00413151;0.524112
0.202095;0.0225464;0.00425571;0.524112
0.202594;0.023009;0.00419775;0.524112
0.203093;0.0235529;0.00430539;0.524112
0.203592;0.023992;0.00477319;0.524112
0.204091;0.0244439;0.00462415;0.524112
0.20459;0.0249306;0.00469866;0.524112
0.205089;0.0254713;0.00530725;0.523857
0.205588;0.0258327;0.00604823;0.524112
0.206087;0.0263319;0.00596957;0.524112
0.206586;0.0268502;0.00612688;0.524112
0.207085;0.0272883;0.00614758;0.524112
0.207584;0.0277934;0.00627591;0.524112
0.208083;0.0283354;0.00628005;0.524112
0.208582;0.0287477;0.00655328;0.524112
0.209081;0.0292443;0.00684305;0.52408
0.20958;0.0298314;0.00803947;0.52408
0.210079;0.0303346;0.00810571;0.524016
0.210578;0.0307947;0.00790285;0.524112
0.211077;0.0313422;0.00830028;0.524112
0.211576;0.0318695;0.00828786;0.524112
0.212075;0.0322631;0.00828372;0.524112
0.212574;0.0328353;0.00869772;0.524112
0.213073;0.0332481;0.0086025;0.524112
0.213572;0.0337414;0.00875982;0.524112
0.214071;0.0341766;0.00879293;0.524112
0.21457;0.0347529;0.0093021;0.524112
0.215069;0.0353341;0.00967468;0.524112
0.215568;0.0357438;0.0100431;0.524112
0.216067;0.036322;0.0103039;0.524112
0.216566;0.0368206;0.0104778;0.524112
0.217065;0.037311;0.0109166;0.524112
0.217564;0.0378144;0.0114051;0.524112
0.218063;0.0382476;0.0120468;0.524112
0.218562;0.038664;0.0123241;0.524112
0.219061;0.0390961;0.0126181;0.524112
0.21956;0.0396193;0.0125601;0.524112
0.220059;0.040101;0.0127381;0.524112
0.220558;0.0406129;0.0136944;0.524112
0.221057;0.0411547;0.0143195;0.524112
0.221556;0.0417076;0.0142657;0.524112
0.222055;0.0420324;0.0142781;0.524112
0.222554;0.0426213;0.0144644;0.524112
0.223053;0.0431839;0.0145058;0.524112
0.223552;0.0436113;0.0151475;0.524112
0.224051;0.0440264;0.0149032;0.524112
0.22455;0.0445112;0.0154538;0.524112
0.225049;0.0449989;0.0158471;0.524112
0.225548;0.0454184;0.0165633;0.524112
0.226047;0.0459204;0.0164184;0.524112
0.226546;0.0463802;0.0166006;0.524112
0.227045;0.0468602;0.0168904;0.524112
0.227544;0.0473859;0.0173333;0.524112
0.228043;0.0479041;0.0180785;0.524112
0.228542;0.0482672;0.018182;0.524112
0.229041;0.0481368;0.01836;0.524112
0.22954;0.0476604;0.0172961;0.524112
0.230039;0.0472124;0.0170311;0.524112
0.230538;0.0467485;0.0169276;0.524112
0.231037;0.0462214;0.0165674;0.524112
0.231536;0.0457668;0.0163191;0.524112
0.232035;0.0452041;0.0160831;0.524112
0.232534;0.0447351;0.0159589;0.524112
0.233033;0.0442951;0.0158926;0.524112
0.233532;0.043854;0.0150523;0.524112
0.234031;0.0433961;0.0150398;0.524112
0.23453;0.0429401;0.0145141;0.524112
0.235029;0.04235;0.014332;0.524112
0.235528;0.0418793;0.0143982;0.524112
0.236027;0.0413896;0.0133425;0.524112
0.236526;0.0409662;0.0134709;0.524112
0.237025;0.040485;0.0133177;0.524112
0.237524;0.0399172;0.0127009;0.524112
0.238023;0.0394791;0.0127091;0.524112
0.238522;0.0390025;0.0124442;0.524112
0.239021;0.0384094;0.0124773;0.524112
0.23952;0.0380236;0.0123573;0.524112
0.240019;0.037541;0.0116121;0.524112
0.240518;0.0370436;0.0107179;0.524112
0.241017;0.0365362;0.0103536;0.524112
0.241516;0.0361385;0.0103205;0.524112
0.242015;0.0356204;0.0096457;0.524112
0.242514;0.0350727;0.00994791;0.524112
0.243013;0.0345685;0.0100059;0.524112
0.243512;0.0341045;0.00984443;0.524112
0.244011;0.0335382;0.00908686;0.524112
0.24451;0.033084;0.00887574;0.524112
0.245009;0.0325522;0.00826716;0.523634
0.245508;0.0320501;0.00828786;0.524112
0.246007;0.0315662;0.00826302;0.524112
0.246506;0.0311184;0.00823818;0.524112
0.247005;0.0305725;0.00797322;0.524112
0.247504;0.0300663;0.00761306;0.524112
0.248003;0.0296411;0.00728602;0.524112
0.248502;0.0291524;0.00744746;0.524112
0.249001;0.0286551;0.00640839;0.524112
0.2495;0.028195;0.00656156;0.524112
0.249999;0.0277472;0.00619726;0.524112
0.250498;0.0271996;0.00621795;0.524112
0.250997;0.0266526;0.00619726;0.524112
0.251496;0.0261099;0.0061807;0.524112
0.251995;0.0256411;0.00588264;0.524112
0.252494;0.0251448;0.00539832;0.524112
0.252993;0.024661;0.00463658;0.524112
0.253492;0.0242279;0.00415221;0.524112
0.253991;0.0237671;0.0041936;0.524112
0.25449;0.0233554;0.00425157;0.524112
