t;vds;corrente;vg
0.000499;-0.0399221;-0.028017;0.357703
0.000998;-0.0404148;-0.0283203;0.365291
0.001497;-0.040909;-0.0288295;0.365291
0.001996;-0.041437;-0.0289372;0.365291
0.002495;-0.0419574;-0.0289289;0.365291
0.002994;-0.0424969;-0.0295374;0.365291
0.003493;-0.0429993;-0.0303448;0.365291
0.003992;-0.0434277;-0.0299722;0.365291
0.004491;-0.043986;-0.0302496;0.365291
0.00499;-0.0444066;-0.0309244;0.365291
0.005489;-0.0449001;-0.0308333;0.365291
0.005988;-0.04538;-0.0308954;0.365291
0.006487;-0.0458092;-0.0309244;0.365291
0.006986;-0.0462785;-0.0309741;0.365291
0.007485;-0.0467289;-0.0309865;0.365291
0.007984;-0.0472291;-0.0310734;0.365291
0.008483;-0.0478587;-0.0310693;0.365291
0.008982;-0.0483028;-0.0312721;0.365291
0.009481;-0.0488772;-0.0313549;0.365291
0.00998;-0.0489731;-0.0316488;0.365291
0.010479;-0.048439;-0.0315205;0.365291
0.010978;-0.0478971;-0.0314626;0.365291
0.011477;-0.047476;-0.0312059;0.365291
0.011976;-0.0469479;-0.0310237;0.365291
0.012475;-0.0463781;-0.0309741;0.365291
0.012974;-0.0459928;-0.030589;0.365291
0.013473;-0.0455496;-0.0304773;0.364781
0.013972;-0.0449967;-0.0301295;0.365291
0.014471;-0.0446176;-0.0292352;0.365291
0.01497;-0.0441916;-0.0291524;0.365163
0.015469;-0.0436901;-0.0289123;0.365291
0.015968;-0.0432184;-0.0288999;0.364432
0.016467;-0.0427153;-0.0288585;0.3651
0.016966;-0.0420964;-0.0286971;0.365291
0.017465;-0.041585;-0.028635;0.364941
0.017964;-0.0410422;-0.028726;0.365291
0.018463;-0.0405324;-0.0283535;0.365291
0.018962;-0.0400278;-0.0279478;0.365291
0.019461;-0.0395866;-0.0275131;0.365291
0.01996;-0.0391151;-0.0271489;0.365291
0.020459;-0.038662;-0.0269047;0.365291
0.020958;-0.0381716;-0.0269378;0.365195
0.021457;-0.0376644;-0.0268881;0.365291
0.021956;-0.0371581;-0.0265031;0.365291
0.022455;-0.0367267;-0.0264782;0.365132
0.022954;-0.0362046;-0.0251326;0.365291
0.023453;-0.0356677;-0.0255467;0.365291
0.023952;-0.0351437;-0.0251741;0.364781
0.024451;-0.0346997;-0.0248553;0.365291
0.02495;-0.0342091;-0.024789;0.365291
0.025449;-0.0337188;-0.024789;0.364845
0.025948;-0.0332696;-0.0246234;0.365291
0.026447;-0.0327851;-0.0243419;0.365291
0.026946;-0.0321932;-0.0239611;0.365291
0.027445;-0.0317044;-0.0238742;0.365291
0.027944;-0.0312812;-0.0230504;0.365291
0.028443;-0.0307718;-0.0229676;0.365291
0.028942;-0.0302992;-0.0228683;0.365291
0.029441;-0.029871;-0.0227193;0.3651
0.02994;-0.0294179;-0.0226696;0.365291
0.030439;-0.0287962;-0.0222348;0.365132
0.030938;-0.0283233;-0.0219906;0.364909
0.031437;-0.0278439;-0.0211419;0.365132
0.031936;-0.0273081;-0.0210301;0.365291
0.032435;-0.0268154;-0.0211129;0.365291
0.032934;-0.0263369;-0.0205996;0.365291
0.033433;-0.0259035;-0.0202974;0.365291
0.033932;-0.0254142;-0.0204878;0.365291
0.034431;-0.0249611;-0.0200325;0.364718
0.03493;-0.0245663;-0.0197385;0.365291
0.035429;-0.0239881;-0.019101;0.365291
0.035928;-0.0235637;-0.0189975;0.365291
0.036427;-0.0230702;-0.0189975;0.365291
0.036926;-0.0225028;-0.0187657;0.365291
0.037425;-0.0220518;-0.0186208;0.365291
0.037924;-0.0215357;-0.0185546;0.365291
0.038423;-0.0210432;-0.018182;0.365291
0.038922;-0.0205981;-0.0176397;0.365195
0.039421;-0.0201354;-0.0173499;0.365291
0.03992;-0.0196567;-0.017056;0.365004
0.040419;-0.0192185;-0.016762;0.365291
0.040918;-0.0188129;-0.0168986;0.365291
0.041417;-0.0183026;-0.016526;0.365291
0.041916;-0.0178506;-0.0164598;0.365291
0.042415;-0.0173129;-0.016526;0.365291
0.042914;-0.016852;-0.0162735;0.365291
0.043413;-0.0163338;-0.015727;0.365227
0.043912;-0.0158621;-0.0150937;0.365291
0.044411;-0.0154357;-0.0150771;0.364941
0.04491;-0.0149454;-0.014659;0.36389
0.045409;-0.0143868;-0.0145058;0.36128
0.045908;-0.013992;-0.0145017;0.363445
0.046407;-0.0135785;-0.0145307;0.364368
0.046906;-0.0130001;-0.0141871;0.364781
0.047405;-0.0125205;-0.0138476;0.364845
0.047904;-0.012116;-0.0137689;0.365163
0.048403;-0.0116097;-0.0131728;0.365004
0.048902;-0.0110767;-0.0128375;0.364686
0.049401;-0.0105793;-0.0127837;0.3651
0.0499;-0.0100089;-0.01244;0.365291
0.050399;-0.00946914;-0.0119929;0.365132
0.050898;-0.00900031;-0.0117321;0.365291
0.051397;-0.00853357;-0.0116825;0.365291
0.051896;-0.00796409;-0.0106475;0.365291
0.052395;-0.00753191;-0.0103536;0.365291
0.052894;-0.00709469;-0.0104157;0.365291
0.053393;-0.00659728;-0.010395;0.365291
0.053892;-0.00608809;-0.0101549;0.365291
0.054391;-0.00561929;-0.0100473;0.365291
0.05489;-0.00512979;-0.0098403;0.365291
0.055389;-0.0045653;-0.00949669;0.365291
0.055888;-0.00404619;-0.00911996;0.365291
0.056387;-0.00350442;-0.00863148;0.365291
0.056886;-0.00302677;-0.00874323;0.365291
0.057385;-0.00253825;-0.00826302;0.365291
0.057884;-0.00205665;-0.0083541;0.365291
0.058383;-0.00160763;-0.00807672;0.365291
0.058882;-0.00110728;-0.0075758;0.365291
0.059381;-0.000674037;-0.00700451;0.365291
0.05988;-0.000216126;-0.0065036;0.365195
0.060379;0.000354289;-0.00627591;0.365259
0.060878;0.000810225;-0.00623866;0.364973
0.061377;0.00121978;-0.00618898;0.364304
0.061876;0.00169151;-0.00588679;0.365291
0.062375;0.00213363;-0.00595302;0.365291
0.062874;0.0027238;-0.00540658;0.365163
0.063373;0.00320342;-0.00584952;0.365291
0.063872;0.00376395;-0.00568809;0.365227
0.064371;0.00425442;-0.00547281;0.365291
0.06487;0.00477255;-0.00506296;0.365291
0.065369;0.00529757;-0.00474421;0.365291
0.065868;0.00573577;-0.00412323;0.365291
0.066367;0.00619266;-0.00402387;0.365227
0.066866;0.00669599;-0.00383759;0.365291
0.067365;0.00712531;-0.00309244;0.365291
0.067864;0.00766211;-0.00305517;0.365291
0.068363;0.00811907;-0.00279436;0.365291
0.068862;0.00863024;-0.00277367;0.365291
0.069361;0.00915628;-0.00231415;0.365291
0.06986;0.00970201;-0.00210715;0.365291
0.070359;0.0102349;-0.00207818;0.365291
0.070858;0.0106474;-0.00204506;0.365291
0.071357;0.0111251;-0.00182151;0.365291
0.071856;0.0117064;-0.00149032;0.365291
0.072355;0.0121178;-0.000596131;0.365291
0.072854;0.0125797;-0.000132474;0.365291
0.073353;0.0130357;-0.000289786;0.365291
0.073852;0.013542;-0.000140753;0.365291
0.074351;0.0140078;-0.000165592;0.365291
0.07485;0.0145062;-9.31323e-13;0.365291
0.075349;0.0150311;1.24194e-05;0.365291
0.075848;0.0154624;4.1398e-05;0.365163
0.076347;0.0159776;0.000356023;0.365291
0.076846;0.0164474;0.000637529;0.365291
0.077345;0.0168589;0.00137027;0.365291
0.077844;0.0173198;0.0020078;0.364909
0.078343;0.0177766;0.00183807;0.3651
0.078842;0.0182227;0.00214027;0.365291
0.079341;0.0187231;0.00217753;0.365163
0.07984;0.0191573;0.00232657;0.365291
0.080339;0.0197061;0.0027571;0.365291
0.080838;0.0201749;0.00346915;0.365291
0.081337;0.0206326;0.00372167;0.365163
0.081836;0.0211785;0.00388312;0.365259
0.082335;0.021657;0.00397834;0.365291
0.082834;0.0221574;0.00416877;0.365291
0.083333;0.0226381;0.00413151;0.365291
0.083832;0.0231709;0.0042764;0.365291
0.084331;0.0235579;0.00418947;0.365291
0.08483;0.0240976;0.00428055;0.365291
0.085329;0.0245238;0.00492222;0.365291
0.085828;0.0249198;0.00594888;0.365291
0.086327;0.0254111;0.00593645;0.365291
0.086826;0.025881;0.00619726;0.365291
0.087325;0.0263861;0.00625935;0.365291
0.087824;0.0269045;0.00619726;0.365291
0.088323;0.0274777;0.00620553;0.365291
0.088822;0.0280283;0.00642908;0.365291
0.089321;0.0284429;0.00647048;0.365291
0.08982;0.028877;0.00669404;0.365291
0.090319;0.0294565;0.007315;0.365291
0.090818;0.0299153;0.00802704;0.365291
0.091317;0.0303997;0.00774968;0.364718
0.091816;0.0308865;0.00826302;0.365291
0.092315;0.0313797;0.00807259;0.365291
0.092814;0.0318922;0.00825888;0.365291
0.093313;0.0324071;0.00832926;0.365291
0.093812;0.0328609;0.00868943;0.365291
0.094311;0.0333438;0.00889643;0.365291
0.09481;0.0338312;0.0089958;0.365291
0.095309;0.0343879;0.00988995;0.365291
0.095808;0.0348368;0.0103081;0.365291
0.096307;0.0353479;0.0103246;0.365291
0.096806;0.035884;0.0103246;0.365291
0.097305;0.0363447;0.0103288;0.365291
0.097804;0.0368038;0.0108462;0.365291
0.098303;0.0372864;0.0113679;0.365291
0.098802;0.0377916;0.0121503;0.365291
0.099301;0.0382446;0.0123573;0.365291
0.0998;0.038737;0.01232;0.365291
0.100299;0.0391751;0.0119805;0.365291
0.100798;0.0396775;0.0123945;0.365291
0.101297;0.04018;0.0123945;0.365291
0.101796;0.0407067;0.0127174;0.365291
0.102295;0.0411666;0.0125974;0.365291
0.102794;0.0416287;0.0132225;0.365291
0.103293;0.042208;0.0141912;0.365291
0.103792;0.0427012;0.0141374;0.364845
0.104291;0.0431326;0.0140298;0.365036
0.10479;0.0436132;0.0143982;0.365291
0.105289;0.044143;0.0148453;0.365291
0.105788;0.0444629;0.0145721;0.365291
0.106287;0.0449752;0.0149736;0.365163
0.106786;0.0454915;0.0158512;0.365036
0.107285;0.0459618;0.0163356;0.365291
0.107784;0.0464869;0.0162652;0.365227
0.108283;0.0469649;0.0164888;0.365291
0.108782;0.0473367;0.0165302;0.365291
0.109281;0.0478449;0.0173871;0.365227
0.10978;0.0482574;0.0169939;0.364941
0.110279;0.0479069;0.0167248;0.365291
0.110778;0.0474257;0.0166668;0.36475
0.111277;0.0469173;0.0164474;0.365291
0.111776;0.0464324;0.0162528;0.364781
0.112275;0.0459602;0.0160582;0.365004
0.112774;0.0454578;0.0153669;0.365227
0.113273;0.0450658;0.0149695;0.365291
0.113772;0.0445259;0.0144893;0.364272
0.114271;0.0440485;0.0144893;0.365068
0.11477;0.043623;0.0143278;0.363986
0.115269;0.0431798;0.0143899;0.3644
0.115768;0.0426432;0.0138724;0.364463
0.116267;0.0421616;0.013624;0.365291
0.116766;0.0417283;0.0131645;0.364686
0.117265;0.0412345;0.0127547;0.365291
0.117764;0.0406527;0.0126139;0.365291
0.118263;0.0401986;0.0125104;0.365291
0.118762;0.0397159;0.0123945;0.365291
0.119261;0.039195;0.0122579;0.365291
0.11976;0.0387281;0.0119557;0.364972
0.120259;0.0382851;0.0107345;0.365291
0.120758;0.0378027;0.0106227;0.365291
0.121257;0.0373416;0.0105275;0.364909
0.121756;0.0368689;0.0106268;0.364654
0.122255;0.0363378;0.010246;0.362967
0.122754;0.0358692;0.0103081;0.365036
0.123253;0.0353953;0.0099686;0.364272
0.123752;0.0348398;0.00989409;0.364654
0.124251;0.0343395;0.00942216;0.365132
0.12475;0.0338036;0.00896267;0.364781
0.125249;0.0333387;0.00882191;0.365163
0.125748;0.0329409;0.00834168;0.365291
0.126247;0.0324477;0.00826302;0.365291
0.126746;0.0319453;0.00823818;0.364145
0.127245;0.031437;0.00812641;0.365291
0.127744;0.0309595;0.00826302;0.364845
0.128243;0.0304057;0.00796081;0.365291
0.128742;0.0299608;0.00790699;0.365227
0.129241;0.0293923;0.00755098;0.365291
0.12974;0.0290132;0.00705006;0.365163
0.130239;0.0284823;0.0066609;0.364591
0.130738;0.0279484;0.00662365;0.36475
0.131237;0.0274699;0.00664434;0.365132
0.131736;0.0268767;0.00619726;0.36424
0.132235;0.0263892;0.00609791;0.362776
0.132734;0.0259242;0.00619726;0.364686
0.133233;0.0255119;0.00583712;0.365036
0.133732;0.0250174;0.00558459;0.364463
0.134231;0.0245328;0.00520788;0.363508
0.13473;0.0241302;0.00478562;0.361598
0.135229;0.0236141;0.00425984;0.3637
0.135728;0.0230781;0.00418119;0.364113
0.136227;0.0226825;0.00422259;0.364909
0.136726;0.0222186;0.00413565;0.365291
0.137225;0.021668;0.00413151;0.365036
0.137724;0.0211627;0.00405285;0.365068
0.138223;0.0206682;0.00414393;0.365227
0.138722;0.0201146;0.00406113;0.365291
0.139221;0.0196518;0.00364716;0.364654
0.13972;0.0192166;0.00252942;0.365259
0.140219;0.0188652;0.00205334;0.364591
0.140718;0.0183174;0.00231829;0.365291
0.141217;0.0178348;0.00206576;0.365291
0.141716;0.0174086;0.00169731;0.365291
0.142215;0.0169191;0.00116328;0.365291
0.142714;0.0165283;0.0011343;0.365291
0.143213;0.0160348;0.00132473;0.365291
0.143712;0.0155699;0.00146135;0.365291
0.144211;0.0149405;0.000525755;0.365291
0.14471;0.0144943;4.1398e-05;0.365004
0.145209;0.0139733;0.000173872;0.365291
0.145708;0.0135874;3.72582e-05;0.365291
0.146207;0.0131077;-0.000314625;0.365291
0.146706;0.0127011;-0.000322905;0.365291
0.147205;0.0121298;-0.00116742;0.365291
0.147704;0.0116896;-0.00107635;0.365291
0.148203;0.0112268;-0.00130817;0.365291
0.148702;0.0106829;-0.00182151;0.365291
0.149201;0.0101865;-0.00205334;0.365291
0.1497;0.0097889;-0.00201608;0.365291
0.150199;0.00921744;-0.00207817;0.365291
0.150698;0.00861646;-0.00251286;0.365291
0.151197;0.00817531;-0.00295168;0.365291
0.151696;0.00762466;-0.00383345;0.365291
0.152195;0.00711048;-0.00409425;0.365291
0.152694;0.00678776;-0.00409839;0.365291
0.153193;0.00632493;-0.00423087;0.365291
0.153692;0.00590155;-0.00417705;0.365291
0.154191;0.00535579;-0.00458689;0.365291
0.15469;0.00488309;-0.00501743;0.365291
0.155189;0.00430672;-0.00587021;0.365291
0.155688;0.00373139;-0.0061393;0.365291
0.156187;0.00328238;-0.0060979;0.365291
0.156686;0.00273463;-0.00619726;0.365291
0.157185;0.00216422;-0.00647877;0.365291
0.157684;0.0016925;-0.00673956;0.365291
0.158183;0.00126715;-0.00645393;0.365291
0.158682;0.000831937;-0.00690516;0.365291
0.159181;0.000368105;-0.0071494;0.365291
0.15968;-9.27668e-05;-0.00664022;0.365291
0.160179;-0.000645417;-0.00715355;0.365291
0.160678;-0.00115366;-0.0082713;0.365291
0.161177;-0.00155927;-0.00834582;0.365291
0.161676;-0.00203395;-0.00826302;0.365291
0.162175;-0.00254221;-0.00841205;0.365291
0.162674;-0.00302973;-0.00851141;0.365291
0.163173;-0.00347481;-0.00882188;0.365291
0.163672;-0.0040373;-0.00979061;0.365291
0.164171;-0.00449523;-0.00914892;0.365291
0.16467;-0.00501237;-0.0099272;0.365291
0.165169;-0.00549397;-0.00986099;0.365291
0.165668;-0.00597062;-0.0103288;0.365291
0.166167;-0.00644038;-0.0104364;0.365291
0.166666;-0.00696938;-0.0103412;0.365291
0.167165;-0.00754962;-0.0110822;0.365291
0.167664;-0.00794436;-0.0112933;0.365291
0.168163;-0.00845756;-0.0120136;0.365291
0.168662;-0.00889177;-0.0121917;0.365291
0.169161;-0.00941581;-0.0123945;0.365291
0.16966;-0.00994972;-0.0122082;0.365291
0.170159;-0.0104668;-0.012498;0.365291
0.170658;-0.0110709;-0.0131148;0.364527
0.171157;-0.0114558;-0.0130569;0.365291
0.171656;-0.0119471;-0.0133508;0.365291
0.172155;-0.0125373;-0.0143154;0.365291
0.172654;-0.0129548;-0.0142988;0.365291
0.173153;-0.0133959;-0.0141374;0.365291
0.173652;-0.0139131;-0.0145141;0.365291
0.174151;-0.0143897;-0.014717;0.365291
0.17465;-0.0148624;-0.0149198;0.365259
0.175149;-0.0154012;-0.014957;0.365291
0.175648;-0.0159095;-0.0161079;0.365036
0.176147;-0.016324;-0.0160044;0.365291
0.176646;-0.0167928;-0.0164639;0.365291
0.177145;-0.0173139;-0.016526;0.3651
0.177644;-0.0177657;-0.0165302;0.364972
0.178143;-0.0181368;-0.0166047;0.364941
0.178642;-0.0187122;-0.0167289;0.364813
0.179141;-0.0190971;-0.0169773;0.364877
0.17964;-0.0195511;-0.0177514;0.364909
0.180139;-0.0200259;-0.0177556;0.363381
0.180638;-0.0205665;-0.017946;0.365291
0.181137;-0.0209762;-0.0182192;0.365195
0.181636;-0.0214765;-0.0186581;0.365291
0.182135;-0.0219955;-0.018596;0.365291
0.182634;-0.0224763;-0.0185918;0.365291
0.183133;-0.0230248;-0.0190513;0.365291
0.183632;-0.0235944;-0.0196764;0.365291
0.184131;-0.0240315;-0.0193162;0.365227
0.18463;-0.0244251;-0.0198627;0.365036
0.185129;-0.0248892;-0.0205789;0.365291
0.185628;-0.025344;-0.0206989;0.365291
0.186127;-0.0257962;-0.0206824;0.365291
0.186626;-0.02632;-0.020939;0.364877
0.187125;-0.0268048;-0.0212081;0.365291
0.187624;-0.0273031;-0.0213323;0.365291
0.188123;-0.0277599;-0.0224502;0.365227
0.188622;-0.0283078;-0.0225992;0.365291
0.189121;-0.028876;-0.0227151;0.365291
0.18962;-0.029348;-0.0226737;0.365291
0.190119;-0.0298383;-0.0227607;0.365291
0.190618;-0.0303267;-0.0228642;0.364877
0.191117;-0.0307394;-0.0230215;0.365291
0.191616;-0.0311785;-0.0238742;0.364559
0.192115;-0.0317016;-0.0241267;0.365291
0.192614;-0.0322167;-0.0244289;0.365291
0.193113;-0.0326892;-0.0247435;0.365291
0.193612;-0.0331957;-0.0245489;0.365291
0.194111;-0.0336349;-0.0247435;0.365291
0.19461;-0.0341075;-0.0247766;0.365291
0.195109;-0.0345882;-0.0249174;0.365291
0.195608;-0.0350993;-0.0252155;0.365291
0.196107;-0.0355996;-0.0259152;0.365291
0.196606;-0.0361139;-0.0267184;0.365291
0.197105;-0.0367042;-0.0269916;0.365291
0.197604;-0.0370161;-0.0266976;0.365291
0.198103;-0.0375074;-0.0267349;0.365291
0.198602;-0.0380325;-0.0267846;0.365291
0.199101;-0.0384815;-0.0268798;0.365291
0.1996;-0.0389017;-0.026855;0.365291
0.200099;-0.03942;-0.027033;0.365291
0.200598;-0.0399212;-0.0270992;0.365291
0.201097;-0.0403645;-0.0280637;0.365291
0.201596;-0.0409663;-0.0283783;0.365291
0.202095;-0.0415368;-0.0284818;0.365163
0.202594;-0.0419939;-0.028635;0.365291
0.203093;-0.0425492;-0.0287923;0.365291
0.203592;-0.043097;-0.0290986;0.365291
0.204091;-0.0435421;-0.0291069;0.365291
0.20459;-0.0439771;-0.02914;0.365291
0.205089;-0.0444549;-0.029732;0.365291
0.205588;-0.0449584;-0.0308168;0.365291
0.206087;-0.0454284;-0.0308292;0.365291
0.206586;-0.0458643;-0.0307049;0.365291
0.207085;-0.0463664;-0.0309244;0.365291
0.207584;-0.0468286;-0.0308582;0.365291
0.208083;-0.0473514;-0.0310196;0.365291
0.208582;-0.0479209;-0.0313217;0.365291
0.209081;-0.048372;-0.0317688;0.365291
0.20958;-0.0488703;-0.0317729;0.365291
0.210079;-0.0488341;-0.0319717;0.365291
0.210578;-0.0483254;-0.0314998;0.365291
0.211077;-0.0477797;-0.030974;0.365291
0.211576;-0.0472746;-0.0310155;0.365259
0.212075;-0.0467821;-0.0309865;0.365291
0.212574;-0.0462431;-0.0308623;0.365291
0.213073;-0.04582;-0.0309575;0.365291
0.213572;-0.0453641;-0.030854;0.365291
0.214071;-0.0448763;-0.0305103;0.365195
0.21457;-0.044371;-0.0299307;0.365291
0.215069;-0.0439507;-0.0297942;0.365291
0.215568;-0.043547;-0.0290738;0.365291
0.216067;-0.0429796;-0.0289413;0.365291
0.216566;-0.0425613;-0.0289703;0.365195
0.217065;-0.0420293;-0.0289123;0.365291
0.217564;-0.0414043;-0.0290489;0.365291
0.218063;-0.0408627;-0.0285605;0.365291
0.218562;-0.0403488;-0.0283411;0.365291
0.219061;-0.0398402;-0.0274676;0.365291
0.21956;-0.0393795;-0.0273766;0.365291
0.220059;-0.0389196;-0.0271655;0.365291
0.220558;-0.0384884;-0.0268426;0.365291
0.221057;-0.0379684;-0.0268302;0.365291
0.221556;-0.0374975;-0.0267556;0.365291
0.222055;-0.0371216;-0.0263623;0.365291
0.222554;-0.0366476;-0.0262919;0.365291
0.223053;-0.0360813;-0.0254597;0.365291
0.223552;-0.0355621;-0.0251533;0.365291
0.224051;-0.0350322;-0.0248304;0.365291
0.22455;-0.0345527;-0.0248014;0.365291
0.225049;-0.0341203;-0.0243255;0.365291
0.225548;-0.0335757;-0.0242674;0.365291
0.226047;-0.0331156;-0.0241143;0.365291
0.226546;-0.0326243;-0.0232533;0.365291
0.227045;-0.0321142;-0.0232409;0.365291
0.227544;-0.0316018;-0.0228021;0.365291
0.228043;-0.0311786;-0.0227358;0.365291
0.228542;-0.0306948;-0.0227027;0.365291
0.229041;-0.0302469;-0.0225992;0.365291
0.22954;-0.0297023;-0.0223135;0.365291
0.230039;-0.0292797;-0.0222555;0.365291
0.230538;-0.0288081;-0.0218168;0.365291
0.231037;-0.0281872;-0.021411;0.365291
0.231536;-0.0276475;-0.0207569;0.365291
0.232035;-0.0272075;-0.0207527;0.365291
0.232534;-0.0267148;-0.0207693;0.365195
0.233033;-0.0262382;-0.0205954;0.365291
0.233532;-0.025721;-0.0203263;0.365291
0.234031;-0.0253047;-0.0201898;0.365291
0.23453;-0.0248249;-0.019515;0.365291
0.235029;-0.0244371;-0.0194239;0.365291
0.235528;-0.0238855;-0.0188982;0.365291
0.236027;-0.0233998;-0.0188485;0.365291
0.236526;-0.0229607;-0.0186125;0.365291
0.237025;-0.0224169;-0.0185918;0.365291
0.237524;-0.0218772;-0.018567;0.365291
0.238023;-0.0214055;-0.01836;0.365291
0.238522;-0.0209869;-0.01836;0.365291
0.239021;-0.0205419;-0.017917;0.365132
0.23952;-0.0199379;-0.0175279;0.365291
0.240019;-0.0194811;-0.0167579;0.365291
0.240518;-0.0190429;-0.0165881;0.365291
0.241017;-0.0185049;-0.0164805;0.365291
0.241516;-0.0181211;-0.0165426;0.365291
0.242015;-0.0176917;-0.0164557;0.365291
0.242514;-0.0172033;-0.0158471;0.365291
0.243013;-0.0167464;-0.0162487;0.365291
0.243512;-0.0162727;-0.0155159;0.365291
0.244011;-0.015791;-0.0159547;0.365291
0.24451;-0.0152601;-0.0148536;0.365291
0.245009;-0.0147924;-0.0145679;0.365291
0.245508;-0.0143335;-0.014481;0.365291
0.246007;-0.0138696;-0.0141001;0.365291
0.246506;-0.0133939;-0.0136572;0.365291
0.247005;-0.0128827;-0.0132597;0.365291
0.247504;-0.0123774;-0.0135702;0.365291
0.248003;-0.0119887;-0.0132556;0.364813
0.248502;-0.0114439;-0.012705;0.365291
0.249001;-0.0109494;-0.0124028;0.364591
0.2495;-0.0104036;-0.0122827;0.365291
0.249999;-0.00991025;-0.0123324;0.365291
0.250498;-0.00941485;-0.0120964;0.365291
0.250997;-0.00884635;-0.0112147;0.365291
0.251496;-0.00839442;-0.010722;0.365291
0.251995;-0.00795126;-0.0104033;0.365291
