t;vds;corrente;vg
0;0.00727233;-0.00422673;0.383438
2e-05;0.0092283;-0.00387899;0.382671
4e-05;0.0112278;-0.00213199;0.382671
6e-05;0.0131926;-0.00153586;0.382671
8e-05;0.0150933;4.96776e-05;0.382671
0.0001;0.0170198;0.000608551;0.382671
0.00012;0.0188158;0.00189602;0.382671
0.00014;0.0207708;0.00291027;0.382671
0.00016;0.0227614;0.00416463;0.382671
0.00018;0.0246305;0.00421017;0.382671
0.0002;0.0266034;0.00567565;0.382671
0.00022;0.0285494;0.00635043;0.382671
0.00024;0.0305192;0.00750543;0.382671
0.00026;0.0324732;0.00822162;0.382671
0.00028;0.0344776;0.00911995;0.382671
0.0003;0.0364605;0.010722;0.382671
0.00032;0.0384527;0.0121006;0.382671
0.00034;0.0403831;0.0123945;0.382671
0.00036;0.0423223;0.0128996;0.382671
0.00038;0.0442862;0.0145224;0.382671
0.0004;0.0460566;0.0156443;0.382671
0.00042;0.0477451;0.016526;0.382671
0.00044;0.0466934;0.015963;0.382671
0.00046;0.0448071;0.014659;0.382671
0.00048;0.0428347;0.014038;0.382671
0.0005;0.0409112;0.0126802;0.382671
0.00052;0.038965;0.0112643;0.382671
0.00054;0.0370741;0.0103784;0.382671
0.00056;0.0350196;0.00904547;0.382671
0.00058;0.0330378;0.00834168;0.382671
0.0006;0.0311183;0.00815538;0.382671
0.00062;0.0291011;0.00661951;0.382671
0.00064;0.0271462;0.00619726;0.382671
0.00066;0.0251802;0.00535279;0.382671
0.00068;0.0232775;0.00413151;0.382671
0.0007;0.0213501;0.00383345;0.382671
0.00072;0.0194071;0.00210301;0.382671
0.00074;0.0175428;0.00178011;0.382671
0.00076;0.0155562;-1.65592e-05;0.382671
0.00078;0.0135804;-0.00109704;0.382671
0.0008;0.011737;-0.00206162;0.382671
0.00082;0.00980667;-0.00305102;0.382671
0.00084;0.00776775;-0.00412737;0.382671
0.00086;0.00579789;-0.00551834;0.382671
0.00088;0.00377482;-0.00600269;0.382671
0.0009;0.00178527;-0.00648704;0.382671
0.00092;1.87508e-05;-0.00751371;0.382671
0.00094;-0.00194711;-0.00850727;0.382671
0.00096;-0.00391395;-0.00998517;0.382671
0.00098;-0.00597062;-0.0103412;0.382671
0.001;-0.00795226;-0.0115914;0.382671
0.00102;-0.00981846;-0.0123945;0.382671
0.00104;-0.0119017;-0.0133053;0.382671
0.00106;-0.0138884;-0.0145886;0.382671
0.00108;-0.0158088;-0.0163894;0.382671
0.0011;-0.0176907;-0.0166254;0.382671
0.00112;-0.0195127;-0.0173871;0.382671
0.00114;-0.0214695;-0.0185628;0.382671
0.00116;-0.0234423;-0.0196143;0.382671
0.00118;-0.0252464;-0.0209018;0.382671
0.0012;-0.0272141;-0.0223757;0.382671
0.00122;-0.0292403;-0.02274;0.382671
0.00124;-0.0311599;-0.0238327;0.382671
0.00126;-0.0332184;-0.0246897;0.382671
0.00128;-0.0351426;-0.0251244;0.382671
0.0013;-0.0369991;-0.0264369;0.382671
0.00132;-0.0389591;-0.0275628;0.382671
0.00134;-0.0409781;-0.0288833;0.382687
0.00136;-0.04304;-0.0300013;0.382671
0.00138;-0.0450208;-0.0309865;0.382671
0.0014;-0.0468699;-0.0311769;0.382671
0.00142;-0.0486946;-0.0321248;0.382671
0.00144;-0.0477099;-0.0311024;0.382671
0.00146;-0.0458376;-0.0309161;0.382783
0.00148;-0.0439308;-0.0300176;0.382671
0.0015;-0.041882;-0.0288833;0.382671
0.00152;-0.0399035;-0.0280886;0.382671
0.00154;-0.0379674;-0.0268012;0.382735
0.00156;-0.0359955;-0.0255508;0.382687
0.00158;-0.0341104;-0.024789;0.382671
0.0016;-0.032123;-0.0236631;0.382671
0.00162;-0.0300625;-0.0227234;0.382671
0.00164;-0.0281685;-0.0215724;0.382671
0.00166;-0.0262055;-0.0206617;0.382671
0.00168;-0.0243128;-0.0202435;0.382671
0.0017;-0.0223775;-0.019101;0.382671
0.00172;-0.0204234;-0.0184138;0.382735
0.00174;-0.0184595;-0.016791;0.382671
0.00176;-0.0166566;-0.0162321;0.382671
0.00178;-0.0146957;-0.014808;0.382671
0.0018;-0.0128077;-0.0132887;0.382671
0.00182;-0.0107441;-0.0124566;0.382671
0.00184;-0.00890953;-0.0122206;0.382671
0.00186;-0.00688545;-0.0106848;0.382671
0.00188;-0.00483472;-0.0101094;0.382671
0.0019;-0.00284122;-0.00850314;0.382671
0.00192;-0.000959246;-0.00825474;0.382671
0.00194;0.000928651;-0.00687617;0.382671
0.00196;0.00282445;-0.00619726;0.382671
0.00198;0.00488507;-0.00579987;0.382671
0.002;0.00687562;-0.0045662;0.382671
0.00202;0.00887103;-0.00386243;0.382671
0.00204;0.0108626;-0.00265362;0.382671
0.00206;0.0127426;-0.00157726;0.382671
0.00208;0.0146857;-0.000186291;0.382671
0.0021;0.0166201;0.000103495;0.382671
0.00212;0.0184596;0.00193742;0.382671
0.00214;0.0203476;0.00236383;0.382671
0.00216;0.022341;0.00349398;0.382671
0.00218;0.024219;0.00416049;0.382671
0.0022;0.0262036;0.00529893;0.382671
0.00222;0.0281538;0.00621795;0.382671
0.00224;0.0300909;0.00700451;0.382671
0.00226;0.032187;0.0081471;0.382671
0.00228;0.0341095;0.00891298;0.382671
0.0023;0.0361347;0.0102874;0.382671
0.00232;0.0380394;0.0114465;0.382671
0.00234;0.0399588;0.0123821;0.382671
0.00236;0.0419246;0.0130031;0.382671
0.00238;0.0438636;0.0141043;0.382671
0.0024;0.0457822;0.0159589;0.382671
0.00242;0.0476308;0.0166751;0.382671
0.00244;0.0469833;0.0161162;0.382671
0.00246;0.0451476;0.0150606;0.382671
0.00248;0.0433162;0.0143899;0.382671
0.0025;0.0413689;0.0127712;0.382671
0.00252;0.039417;0.011877;0.382671
0.00254;0.0374264;0.0105233;0.382671
0.00256;0.0354743;0.0102377;0.382671
0.00258;0.033397;0.00867287;0.382671
0.0026;0.0315466;0.00806016;0.382671
0.00262;0.0295028;0.0067851;0.382671
0.00264;0.0275469;0.00615172;0.382671
0.00266;0.0256086;0.00452894;0.382671
0.00268;0.0236475;0.00411081;0.382671
0.0027;0.0217558;0.00276954;0.382671
0.00272;0.019789;0.00206576;0.382671
0.00274;0.0178921;0.000877636;0.382671
0.00276;0.0160002;0;0.382671
0.00278;0.0141025;-0.00135371;0.382671
0.0028;0.0122226;-0.0019871;0.382671
0.00282;0.0102211;-0.00240522;0.382703
0.00284;0.00816546;-0.00411495;0.382671
0.00286;0.00619467;-0.00470695;0.382671
0.00288;0.00428304;-0.00591989;0.382671
0.0029;0.00227773;-0.00618484;0.382735
0.00292;0.000413502;-0.00743092;0.382671
0.00294;-0.00158888;-0.00845346;0.382671
0.00296;-0.00349453;-0.0100555;0.382671
0.00298;-0.00550184;-0.010453;0.382671
0.003;-0.00753187;-0.0114755;0.382671
0.00302;-0.00942964;-0.0124276;0.382703
0.00304;-0.0114507;-0.0132639;0.382671
0.00306;-0.0135104;-0.0144893;0.382671
0.00308;-0.0153854;-0.0161866;0.382671
0.0031;-0.0173019;-0.0165012;0.382671
0.00312;-0.0190961;-0.0172878;0.382671
0.00314;-0.0210639;-0.018596;0.382671
0.00316;-0.0229973;-0.0196143;0.382671
0.00318;-0.0249118;-0.0206658;0.382671
0.0032;-0.0269044;-0.0222887;0.382719
0.00322;-0.0288653;-0.0227234;0.382671
0.00324;-0.0308134;-0.0234851;0.382671
0.00326;-0.0327387;-0.0245158;0.382687
0.00328;-0.0346986;-0.0249878;0.382671
0.0033;-0.0367022;-0.026826;0.382671
0.00332;-0.0386184;-0.0280016;0.382671
0.00334;-0.0405775;-0.0287136;0.382671
0.00336;-0.0425987;-0.0291069;0.382671
0.00338;-0.0445132;-0.0304442;0.382687
0.0034;-0.0464476;-0.0310486;0.382671
0.00342;-0.0484182;-0.0320089;0.382671
0.00344;-0.0482634;-0.0320586;0.382671
0.00346;-0.0462463;-0.0310734;0.382671
0.00348;-0.0443298;-0.0309492;0.382671
0.0035;-0.0423104;-0.0292228;0.382671
0.00352;-0.0402706;-0.0287219;0.382671
0.00354;-0.0384214;-0.0277782;0.382671
0.00356;-0.0364534;-0.026503;0.382671
0.00358;-0.0344895;-0.0251575;0.382671
0.0036;-0.0325108;-0.0244289;0.382671
0.00362;-0.0305331;-0.0228062;0.382671
0.00364;-0.0286342;-0.0225951;0.382671
0.00366;-0.0266399;-0.0216966;0.382671
0.00368;-0.0246572;-0.0201318;0.382671
0.0037;-0.0227396;-0.0195812;0.382671
0.00372;-0.0208527;-0.0185918;0.382671
0.00374;-0.0189096;-0.0169524;0.382671
0.00376;-0.0170326;-0.016526;0.382671
0.00378;-0.0151546;-0.0151434;0.382671
0.0038;-0.013233;-0.0144272;0.382671
0.00382;-0.0112337;-0.0134129;0.382671
0.00384;-0.00920658;-0.0124525;0.382671
0.00386;-0.00723185;-0.0108752;0.382671
0.00388;-0.00520482;-0.0103288;0.382671
0.0039;-0.0032123;-0.00936424;0.382671
0.00392;-0.00132538;-0.00826302;0.382671
0.00394;0.000577325;-0.00738122;0.382671
0.00396;0.00250964;-0.00634629;0.382671
0.00398;0.00456432;-0.00539004;0.382671
0.004;0.00651838;-0.00416463;0.382671
0.00402;0.00838649;-0.00348158;0.382671
0.00404;0.0104718;-0.00235141;0.382671
0.00406;0.0124376;-0.00200366;0.382671
0.00408;0.0143522;-0.000885916;0.382671
0.0041;0.0163349;0.000165592;0.382671
0.00412;0.0180777;0.00141167;0.382671
0.00414;0.0200525;0.00201608;0.382671
0.00416;0.0219552;0.00295996;0.382671
0.00418;0.0238409;0.00411495;0.382671
0.0042;0.0257804;0.00465312;0.382671
0.00422;0.0278182;0.00630903;0.382671
0.00424;0.0297672;0.00779108;0.382671
0.00426;0.0318002;0.00806017;0.382671
0.00428;0.0336724;0.00834582;0.382671
0.0043;0.035727;0.00976576;0.382671
0.00432;0.0376496;0.0109125;0.382671
0.00434;0.0396135;0.0120799;0.382671
0.00436;0.0415616;0.0126719;0.382671
0.00438;0.0435537;0.0141498;0.382671
0.0044;0.0453631;0.015251;0.382671
0.00442;0.0473168;0.0163936;0.382671
0.00444;0.0474383;0.0164598;0.382671
0.00446;0.0455366;0.0151185;0.382671
0.00448;0.043689;0.0144437;0.382671
0.0045;0.0417399;0.0130362;0.382671
0.00452;0.0397871;0.0122248;0.382671
0.00454;0.0379151;0.0104695;0.382671
0.00456;0.0358888;0.0101922;0.382671
0.00458;0.0339466;0.0084576;0.382671
0.0046;0.0319246;0.00823818;0.382671
0.00462;0.0298927;0.00698381;0.382671
0.00464;0.0279919;0.0064208;0.382671
0.00466;0.0259529;0.00582884;0.382671
0.00468;0.0240631;0.00425571;0.382671
0.0047;0.0221141;0.00384173;0.382671
0.00472;0.0201492;0.0020285;0.382671
0.00474;0.0182286;0.00182979;0.382671
0.00476;0.0163911;0.000956292;0.382671
0.00478;0.0144164;-0.000190431;0.382671
0.0048;0.0125669;-0.00181323;0.382671
0.00482;0.0106592;-0.00247145;0.382671
0.00484;0.00864308;-0.00355194;0.382671
0.00486;0.00659139;-0.0042764;0.382671
0.00488;0.00459588;-0.00590747;0.382671
0.0049;0.00258266;-0.00619726;0.382671
0.00492;0.000735224;-0.00685549;0.382671
0.00494;-0.00118425;-0.00829613;0.382671
0.00496;-0.00312051;-0.00972849;0.382671
0.00498;-0.00507949;-0.0103205;0.382671
0.005;-0.00706015;-0.0109622;0.382671
0.00502;-0.00907138;-0.0122703;0.382671
0.00504;-0.0110482;-0.0134543;0.382671
0.00506;-0.0130624;-0.014452;0.382671
0.00508;-0.0150084;-0.0150399;0.382671
0.0051;-0.0169073;-0.0165343;0.382671
0.00512;-0.0187615;-0.0174948;0.382671
0.00514;-0.0206642;-0.0185132;0.382671
0.00516;-0.0226252;-0.0192417;0.382671
0.00518;-0.0244845;-0.0204257;0.382671
0.0052;-0.0264435;-0.0217837;0.382671
0.00522;-0.0284478;-0.0226572;0.382671
0.00524;-0.0304127;-0.0232781;0.382671
0.00526;-0.0323696;-0.0245365;0.382671
0.00528;-0.0343227;-0.0256709;0.382671
0.0053;-0.0361988;-0.0267556;0.382671
0.00532;-0.0381824;-0.0276042;0.382671
0.00534;-0.0401481;-0.0285563;0.382671
0.00536;-0.0421773;-0.0292642;0.382671
0.00538;-0.0441835;-0.0306263;0.382671
0.0054;-0.0460586;-0.0309865;0.382671
0.00542;-0.0480543;-0.0321537;0.382671
0.00544;-0.0486097;-0.0327789;0.382671
0.00546;-0.046573;-0.031061;0.382671
0.00548;-0.0447727;-0.0309492;0.382671
0.0055;-0.0427251;-0.0292559;0.382671
0.00552;-0.0407474;-0.0289413;0.382671
0.00554;-0.0387547;-0.0280307;0.382671
0.00556;-0.0368529;-0.026826;0.382671
0.00558;-0.0348775;-0.0263416;0.382671
0.0056;-0.0329717;-0.0248553;0.382671
0.00562;-0.0309485;-0.023837;0.382671
0.00564;-0.0290655;-0.0227441;0.382671
0.00566;-0.0270465;-0.0224253;0.382671
0.00568;-0.0251565;-0.0215269;0.382671
0.0057;-0.0232173;-0.0205996;0.382671
0.00572;-0.0213146;-0.0197468;0.382671
0.00574;-0.0192876;-0.0185463;0.382671
0.00576;-0.0174935;-0.0172547;0.382671
0.00578;-0.0155828;-0.0163894;0.382671
0.0058;-0.0136169;-0.0149405;0.382671
0.00582;-0.0116383;-0.0142326;0.382671
0.00584;-0.00962408;-0.0127588;0.382671
0.00586;-0.00765721;-0.0121792;0.382671
0.00588;-0.0057229;-0.0105357;0.382671
0.0059;-0.00364061;-0.01001;0.382671
0.00592;-0.00173494;-0.00866046;0.382671
0.00594;0.000237838;-0.00818436;0.382671
0.00596;0.00203692;-0.00714111;0.382671
0.00598;0.00407777;-0.00615586;0.382671
0.006;0.00602884;-0.00508783;0.382671
0.00602;0.00802528;-0.00413151;0.382671
0.00604;0.0100346;-0.00309244;0.382671
0.00606;0.0119728;-0.00195812;0.382671
0.00608;0.0139407;-0.000596131;0.382671
0.0061;0.0158207;0.000327044;0.382671
0.00612;0.0177312;0.00182979;0.382671
0.00614;0.0195176;0.00220651;0.382671
0.00616;0.0215939;0.00368441;0.382671
0.00618;0.0235015;0.00415221;0.382671
0.0062;0.025431;0.00554318;0.382671
0.00622;0.0273454;0.00619726;0.382671
0.00624;0.0293558;0.0067934;0.382671
0.00626;0.03137;0.00806017;0.382671
0.00628;0.0333259;0.00830442;0.382671
0.0063;0.0352867;0.00947597;0.382671
0.00632;0.037305;0.0107303;0.382671
0.00634;0.0391624;0.0110325;0.382671
0.00636;0.0412012;0.0130238;0.382671
0.00638;0.0431317;0.0142574;0.382671
0.0064;0.0450721;0.0146756;0.382671
0.00642;0.0468561;0.0160541;0.382671
0.00644;0.0477899;0.016526;0.382671
0.00646;0.0459196;0.0157146;0.382671
0.00648;0.0440099;0.014274;0.382671
0.0065;0.0420844;0.0125891;0.382671
0.00652;0.040156;0.0124359;0.382671
0.00654;0.0381777;0.0110822;0.382671
0.00656;0.0362244;0.0102874;0.382671
0.00658;0.0342279;0.00844518;0.382671
0.0066;0.0323134;0.0082506;0.382671
0.00662;0.0302154;0.00715355;0.382671
0.00664;0.0283066;0.00618898;0.382671
0.00666;0.0263052;0.00584953;0.382671
0.00668;0.0243405;0.00417705;0.382671
0.0067;0.0224545;0.00352297;0.382671
0.00672;0.0205369;0.00251286;0.382671
0.00674;0.0185889;0.001925;0.382671
0.00676;0.016774;0.000745163;0.382671
0.00678;0.0148151;-0.000219409;0.382671
0.0068;0.012933;-0.00193328;0.382671
0.00682;0.0109474;-0.00223549;0.382671
0.00684;0.00894012;-0.00375479;0.382671
0.00686;0.00700782;-0.00457447;0.382671
0.00688;0.00500546;-0.00608962;0.382671
0.0069;0.00299517;-0.00634215;0.382671
0.00692;0.00105991;-0.00747646;0.382671
0.00694;-0.000785555;-0.00833754;0.382671
0.00696;-0.00275734;-0.0099686;0.382671
0.00698;-0.00469262;-0.0102542;0.382671
0.007;-0.0068243;-0.0111195;0.382671
0.00702;-0.00872202;-0.0124069;0.382671
0.00704;-0.0107462;-0.0130817;0.382671
0.00706;-0.0127051;-0.01451;0.382671
0.00708;-0.0146749;-0.0158264;0.382671
0.0071;-0.0165698;-0.016526;0.382671
0.00712;-0.0184428;-0.0167703;0.382671
0.00714;-0.0203318;-0.0183227;0.382671
0.00716;-0.0223075;-0.0194694;0.382671
0.00718;-0.0242703;-0.0205913;0.382671
0.0072;-0.0260951;-0.0212496;0.382671
0.00722;-0.0280669;-0.0223922;0.382671
0.00724;-0.0300425;-0.0230422;0.382671
0.00726;-0.0320203;-0.0246814;0.382671
0.00728;-0.0339744;-0.0248801;0.382671
0.0073;-0.0359096;-0.0265528;0.382671
0.00732;-0.0378993;-0.0273848;0.382671
0.00734;-0.0398354;-0.0287343;0.382671
0.00736;-0.0418516;-0.0295748;0.382671
0.00738;-0.0438508;-0.0309037;0.382671
0.0074;-0.0457151;-0.0309865;0.382671
0.00742;-0.0476625;-0.0317688;0.382671
0.00744;-0.0488102;-0.0329817;0.382671
0.00746;-0.0470366;-0.0313218;0.382671
0.00748;-0.0451703;-0.0309823;0.382671
0.0075;-0.043194;-0.0301045;0.382671
0.00752;-0.0411125;-0.0288585;0.382671
0.00754;-0.0391406;-0.0286888;0.382671
0.00756;-0.0372123;-0.0269047;0.382671
0.00758;-0.0352405;-0.0257081;0.382671
0.0076;-0.0333426;-0.0248304;0.382671
0.00762;-0.0313225;-0.0242592;0.382671
0.00764;-0.0294317;-0.0227234;0.382671
0.00766;-0.0274551;-0.0224211;0.382671
0.00768;-0.0255425;-0.0211212;0.382671
0.0077;-0.0235627;-0.0203678;0.382671
0.00772;-0.0216749;-0.0187698;0.382671
0.00774;-0.0196805;-0.0184759;0.382671
0.00776;-0.017828;-0.01682;0.382671
0.00778;-0.0159213;-0.0162569;0.382671
0.0078;-0.0140373;-0.0145928;0.382671
0.00782;-0.0120133;-0.0139345;0.382671
0.00784;-0.0100445;-0.0123655;0.382671
0.00786;-0.00811415;-0.0116121;0.382671
0.00788;-0.00613347;-0.0104116;0.382671
0.0079;-0.00405805;-0.00992722;0.382671
0.00792;-0.00210897;-0.00854454;0.382671
0.00794;-0.000174678;-0.00729429;0.382671
0.00796;0.00169447;-0.00621381;0.382671
0.00798;0.00367118;-0.00618898;0.382671
0.008;0.0057831;-0.00527411;0.382671
0.00802;0.00771147;-0.00422259;0.382671
0.00804;0.00960825;-0.00278609;0.382671
0.00806;0.0116056;-0.00203678;0.382671
0.00808;0.01354;-0.000981131;0.382671
0.0081;0.0154871;0.000173872;0.382671
0.00812;0.0173256;0.000943873;0.382671
0.00814;0.0192422;0.00209059;0.382671
0.00816;0.0212425;0.00349812;0.382671
0.00818;0.0230703;0.00407355;0.382671
0.0082;0.0250174;0.00483113;0.382671
0.00822;0.0270109;0.00619726;0.382671
0.00824;0.0289887;0.00644151;0.382671
0.00826;0.0310039;0.0078242;0.382671
0.00828;0.0329114;0.00826302;0.382671
0.0083;0.0348821;0.00910753;0.382671
0.00832;0.0368768;0.0105026;0.382671
0.00834;0.0388405;0.0123076;0.382671
0.00836;0.0406939;0.0128623;0.382671
0.00838;0.042729;0.0144106;0.382671
0.0084;0.0446347;0.014837;0.382671
0.00842;0.0465502;0.015785;0.382671
0.00844;0.0478448;0.0169732;0.382671
0.00846;0.0463006;0.0156318;0.382671
0.00848;0.0443841;0.0143941;0.382671
0.0085;0.0425227;0.0135868;0.382687
0.00852;0.0405806;0.0124525;0.382671
0.00854;0.0385871;0.0122869;0.382671
0.00856;0.0365796;0.0108504;0.382671
0.00858;0.0346582;0.0097451;0.382671
0.0086;0.0327161;0.00863976;0.382671
0.00862;0.0307462;0.00767515;0.382671
0.00864;0.0287497;0.00639596;0.382671
0.00866;0.0267504;0.0061807;0.382671
0.00868;0.0247589;0.00478562;0.382671
0.0087;0.0228946;0.00402388;0.382671
0.00872;0.0209307;0.00368028;0.382671
0.00874;0.0189994;0.00217753;0.382671
0.00876;0.0171718;0.00155242;0.382671
0.00878;0.0152996;-5.79572e-05;0.382671
0.0088;0.013312;-0.0014779;0.382671
0.00882;0.0113866;-0.00206576;0.382671
0.00884;0.00938424;-0.00311726;0.382671
0.00886;0.00745194;-0.00400731;0.382671
0.00888;0.0054377;-0.00429711;0.382671
0.0089;0.00342843;-0.00607306;0.382671
0.00892;0.0014369;-0.00668575;0.382671
0.00894;-0.000405608;-0.00808915;0.382671
0.00896;-0.00237641;-0.00901646;0.382671
0.00898;-0.00435707;-0.0102087;0.382671
0.009;-0.00634567;-0.0106185;0.382671
0.00902;-0.00829272;-0.0112851;0.382671
0.00904;-0.010233;-0.0126181;0.382671
0.00906;-0.0122866;-0.0137524;0.382671
0.00908;-0.0142417;-0.0145017;0.382671
0.0091;-0.0162066;-0.0159009;0.382671
0.00912;-0.0180135;-0.0167786;0.382671
0.00914;-0.0199242;-0.0181613;0.382671
0.00916;-0.0219305;-0.0192873;0.382671
0.00918;-0.0238202;-0.0199952;0.382671
0.0092;-0.0257172;-0.0211295;0.382671
0.00922;-0.0276919;-0.0226448;0.382671
0.00924;-0.0296567;-0.02274;0.382671
0.00926;-0.0315496;-0.0233443;0.382671
0.00928;-0.0335993;-0.0248428;0.382671
0.0093;-0.0354723;-0.0263623;0.382671
0.00932;-0.0374739;-0.026855;0.382671
0.00934;-0.039502;-0.0278856;0.382671
0.00936;-0.0413652;-0.028904;0.382671
0.00938;-0.0434304;-0.0301793;0.382671
0.0094;-0.0453246;-0.0309865;0.382671
0.00942;-0.0473039;-0.0315246;0.382671
0.00944;-0.0488379;-0.0330521;0.382671
0.00946;-0.0474037;-0.0317027;0.382671
0.00948;-0.0454991;-0.0310569;0.382671
0.0095;-0.0435755;-0.0302826;0.382671
0.00952;-0.04151;-0.0289454;0.382671
0.00954;-0.0395138;-0.0283825;0.382671
0.00956;-0.0376179;-0.0268591;0.382671
0.00958;-0.0356924;-0.026561;0.382671
0.0096;-0.0337107;-0.0250291;0.382671
0.00962;-0.0317361;-0.0245448;0.382671
0.00964;-0.0298671;-0.0228932;0.382671
0.00966;-0.0278755;-0.022682;0.382671
0.00968;-0.0258592;-0.0209018;0.382671
0.0097;-0.0239595;-0.0206078;0.382671
0.00972;-0.0219976;-0.0190927;0.382671
0.00974;-0.02016;-0.0186291;0.382671
0.00976;-0.0182256;-0.017234;0.382671
0.00978;-0.0163881;-0.0164888;0.382671
0.0098;-0.0144223;-0.0147873;0.382671
0.00982;-0.0124475;-0.0144065;0.382671
0.00984;-0.01045;-0.0134419;0.382671
0.00986;-0.0085296;-0.0123283;0.382671
0.00988;-0.00651047;-0.0115748;0.382671
0.0099;-0.00452877;-0.0103246;0.382671
0.00992;-0.00251359;-0.00914069;0.382671
0.00994;-0.00057831;-0.00839964;0.382671
0.00996;0.00125728;-0.00775381;0.382671
0.00998;0.00316393;-0.00625107;0.382671
0.01;0.0052591;-0.00566326;0.382671
0.01002;0.0072358;-0.00414807;0.382671
0.01004;0.00922633;-0.00328287;0.382671
0.01006;0.0112287;-0.00214027;0.382671
0.01008;0.0131334;-0.000923174;0.382671
0.0101;0.0151328;-2.0699e-05;0.382671
0.01012;0.017004;7.03766e-05;0.382671
0.01014;0.0188119;0.00202022;0.382671
0.01016;0.0207698;0.00301791;0.382671
0.01018;0.0227318;0.00411495;0.382671
0.0102;0.0246532;0.00454964;0.382671
0.01022;0.0265876;0.00582468;0.382671
0.01024;0.0285613;0.00621381;0.382671
0.01026;0.0305479;0.00666505;0.382671
0.01028;0.0324909;0.00829614;0.382671
0.0103;0.0344303;0.00904957;0.382671
0.01032;0.0364555;0.0103163;0.382671
0.01034;0.0383679;0.0114962;0.382671
0.01036;0.0403505;0.0123945;0.382671
0.01038;0.0422739;0.0125601;0.382671
0.0104;0.0442191;0.014303;0.382671
