t;vds;corrente;vg
0;-0.00207482;0.0145865;-8.0034e-05
2e-05;-0.00200069;0.0143316;-9.60408e-05
4e-05;-0.00207186;0.0170021;-9.60408e-05
6e-05;-0.00206791;0.0150883;0
8e-05;-0.00201453;0.0205749;0
0.0001;-0.00195225;0.0144975;0
0.00012;-0.000799682;0.0213598;0
0.00014;-0.000639548;0.0210523;0
0.00016;-0.000627687;0.0244431;0
0.00018;-0.000735431;0.0202067;0
0.0002;0.000253051;0.0279268;0
0.00022;0.00193841;0.0367395;0
0.00024;0.00402411;0.0340973;0
0.00026;0.00587653;0.0456735;0
0.00028;0.00778628;0.0493272;0
0.0003;0.00968216;0.0583138;0
0.00032;0.0116927;0.0608225;0
0.00034;0.0135965;0.0704483;0
0.00036;0.0155448;0.0766188;0
0.00038;0.0172678;0.0773916;0
0.0004;0.0194147;0.0880938;0
0.00042;0.0213986;0.0939123;0
0.00044;0.0230988;0.101572;0
0.00046;0.0251736;0.105994;0
0.00048;0.0270142;0.113091;0
0.0005;0.028919;0.117668;0
0.00052;0.0309603;0.126383;0
0.00054;0.0326466;0.13399;0
0.00056;0.0346186;0.138558;0
0.00058;0.0366845;0.145906;0
0.0006;0.0384302;0.150312;0
0.00062;0.0403288;0.160824;0
0.00064;0.0425146;0.16239;0
0.00066;0.0442165;0.175423;0
0.00068;0.0460662;0.173926;0
0.0007;0.0465378;0.182799;0
0.00072;0.0445171;0.173359;0
0.00074;0.0427232;0.166667;0
0.00076;0.0407441;0.162346;0
0.00078;0.0388097;0.153306;0
0.0008;0.0368505;0.149398;0
0.00082;0.0349823;0.136499;0
0.00084;0.0329015;0.134993;0
0.00086;0.031227;0.129017;0
0.00088;0.0291433;0.122855;0
0.0009;0.0273582;0.113747;0
0.00092;0.0253782;0.106723;0
0.00094;0.0234546;0.100269;0
0.00096;0.0215854;0.0968013;0
0.00098;0.0197429;0.0845614;0
0.001;0.0176977;0.0809766;0
0.00102;0.0158226;0.075858;0
0.00104;0.0140028;0.0720426;0
0.00106;0.0119043;0.0656495;0
0.00108;0.0101477;0.0559145;0
0.0011;0.00806206;0.0499463;0
0.00112;0.00622151;0.0444636;0
0.00114;0.00434636;0.0384712;0
0.00116;0.00230218;0.0325921;0
0.00118;0.000549596;0.0248355;0
0.0012;-0.00143725;0.0198425;0
0.00122;-0.00338654;0.00821378;0
0.00124;-0.00528542;0.00572942;0
0.00126;-0.0071151;0.00580225;0
0.00128;-0.00921362;0.000295373;0
0.0013;-0.0112726;-0.0119241;0
0.00132;-0.0129511;-0.012616;0
0.00134;-0.0150486;-0.0243338;0
0.00136;-0.0169633;-0.025754;0
0.00138;-0.0185281;-0.0298933;0
0.0014;-0.0209153;-0.0351776;0
0.00142;-0.0227676;-0.0406157;0
0.00144;-0.0244599;-0.0502335;0
0.00146;-0.02669;-0.0551982;0
0.00148;-0.0283467;-0.0587063;0
0.0015;-0.0302622;-0.0679842;0
0.00152;-0.0322244;-0.0680288;0
0.00154;-0.0340947;-0.0751136;0
0.00156;-0.0362474;-0.0802725;0
0.00158;-0.0382375;-0.0835135;0
0.0016;-0.0400304;-0.09074;0
0.00162;-0.041881;-0.0935926;0
0.00164;-0.043914;-0.104586;0
0.00166;-0.0456086;-0.104861;0
0.00168;-0.0475913;-0.107277;0
0.0017;-0.0482052;-0.110421;0
0.00172;-0.0463924;-0.108191;0
0.00174;-0.0447228;-0.100617;0
0.00176;-0.0425532;-0.0989296;0
0.00178;-0.0405938;-0.0926903;0
0.0018;-0.0388245;-0.08741;0
0.00182;-0.0369771;-0.078124;0
0.00184;-0.0345256;-0.0772783;-1.60068e-05
0.00186;-0.0327187;-0.0689998;-8.0034e-05
0.00188;-0.0312498;-0.0645369;0
0.0019;-0.0290939;-0.0608144;0
0.00192;-0.0273265;-0.0543283;0
0.00194;-0.0252764;-0.0494607;0
0.00196;-0.0232846;-0.0442331;-0.000160068
0.00198;-0.0215379;-0.0414857;0
0.002;-0.0193662;-0.032932;0
0.00202;-0.0176374;-0.0276436;0
0.00204;-0.0156536;-0.0216916;0
0.00206;-0.013813;-0.0153715;0
0.00208;-0.0118054;-0.0122316;0
0.0021;-0.00981066;-0.00475833;0
0.00212;-0.00784559;0.000780917;0
0.00214;-0.00597834;0.00682188;0
0.00216;-0.00397765;0.008408;0
0.00218;-0.00216972;0.0173824;0
0.0022;-7.80899e-05;0.0299863;0
0.00222;0.00174566;0.0301644;0
0.00224;0.00363465;0.0376175;0
0.00226;0.00565116;0.0477411;0
0.00228;0.00742351;0.0499665;0
0.0023;0.00939156;0.0575086;0
0.00232;0.0113527;0.0554208;0
0.00234;0.0131013;0.067175;0
0.00236;0.0151465;0.0748789;0
0.00238;0.0172124;0.0783627;0
0.0024;0.0188572;0.0890528;0
0.00242;0.0210171;0.0891459;0
0.00244;0.0228952;0.097303;0
0.00246;0.0245993;0.107103;0
0.00248;0.0267375;0.110279;0
0.0025;0.0287242;0.114394;0
0.00252;0.030379;0.125032;0
0.00254;0.0323925;0.133954;0
0.00256;0.034577;0.132452;0
0.00258;0.0355941;0.142272;0
0.0026;0.038791;0.149701;0
0.00262;0.0398467;0.152748;0
0.00264;0.0414578;0.163503;0
0.00266;0.044616;0.170576;0
0.00268;0.0454779;0.174476;0
0.0027;0.0460523;0.18044;0
0.00272;0.0458141;0.173278;0
0.00274;0.0423118;0.164769;0
0.00276;0.0410517;0.158728;0
0.00278;0.0397448;0.152351;0
0.0028;0.0367417;0.14519;0
0.00282;0.035515;0.14101;0
0.00284;0.0336558;0.133788;0
0.00286;0.0309799;0.127415;0
0.00288;0.0298244;0.121503;0
0.0029;0.0279176;0.112687;0
0.00292;0.0254197;0.108645;0
0.00294;0.0241041;0.101564;0
0.00296;0.0220352;0.097048;0
0.00298;0.0200335;0.0852979;0
0.003;0.0183481;0.0836025;0
0.00302;0.0161369;0.0761494;0
0.00304;0.0142726;0.0700316;-0.000128054
0.00306;0.0124183;0.0630438;0
0.00308;0.0103534;0.0527341;0
0.0031;0.00841494;0.0522526;0
0.00312;0.00663964;0.0454226;0
0.00314;0.00456679;0.0369256;0
0.00316;0.00275292;0.0319609;0
0.00318;0.000907427;0.0263771;0
0.0032;-0.00106756;0.0239211;0
0.00322;-0.00297336;0.0124178;0
0.00324;-0.00504126;0.0109328;0
0.00326;-0.00690356;0.00526411;0
0.00328;-0.00878168;-7.68777e-05;0
0.0033;-0.0107606;-0.00681379;0
0.00332;-0.012611;-0.0149628;0
0.00334;-0.0144852;-0.0188633;0
0.00336;-0.0165313;-0.0240951;0
0.00338;-0.0183314;-0.0311678;0
0.0034;-0.0203212;-0.0315603;0
0.00342;-0.0222842;-0.0470896;0
0.00344;-0.0243572;-0.0487526;0
0.00346;-0.0258705;-0.0545266;0
0.00348;-0.0284089;-0.0588277;-6.40272e-05
0.0035;-0.0299183;-0.0629953;0
0.00352;-0.0318379;-0.0651559;0
0.00354;-0.0339533;-0.0754818;0
0.00356;-0.0357019;-0.0792043;0
0.00358;-0.0375396;-0.0828256;0
0.0036;-0.0399068;-0.0897892;0
0.00362;-0.0414659;-0.0931718;0
0.00364;-0.0433874;-0.101782;0
0.00366;-0.0453812;-0.100936;0
0.00368;-0.0470992;-0.111044;0
0.0037;-0.0484603;-0.111125;0
0.00372;-0.0469135;-0.106856;0
0.00374;-0.0449036;-0.102442;0
0.00376;-0.0431679;-0.100738;0
0.00378;-0.041269;-0.0889678;-6.40272e-05
0.0038;-0.0390232;-0.0890042;0
0.00382;-0.0373359;-0.0781888;-3.20136e-05
0.00384;-0.0351376;-0.0786257;0
0.00386;-0.0334956;-0.0721842;0
0.00388;-0.0314308;-0.0676564;0
0.0039;-0.0294527;-0.0595318;0
0.00392;-0.0275261;-0.0579658;0
0.00394;-0.0255829;-0.0519249;0
0.00396;-0.0237057;-0.0471058;0
0.00398;-0.0216536;-0.0432134;0
0.004;-0.0199011;-0.031795;0
0.00402;-0.0180882;-0.0300875;0
0.00404;-0.0161636;-0.0229176;0
0.00406;-0.0142133;-0.016557;0
0.00408;-0.012094;-0.0115236;0
0.0041;-0.0100805;-0.00569301;0
0.00412;-0.00827557;-0.00136357;0
0.00414;-0.00629466;0.00466527;0
0.00416;-0.00433845;0.00850511;0
0.00418;-0.00250877;0.0201581;0
0.0042;-0.000571343;0.0229662;0
0.00422;0.00140958;0.0286875;0
0.00424;0.00314733;0.0354042;0
0.00426;0.00514505;0.0389082;0
0.00428;0.00711016;0.0486393;0
0.0043;0.00891315;0.0539601;0
0.00432;0.0109613;0.062012;0
0.00434;0.013041;0.0665317;0
0.00436;0.0148845;0.0677698;0
0.00438;0.0167992;0.074879;0
0.0044;0.018616;0.0842257;0
0.00442;0.0206504;0.0898619;0
0.00444;0.0223535;0.0950573;0
0.00446;0.0242929;0.10453;0
0.00448;0.026335;0.104566;0
0.0045;0.0282043;0.112808;0
0.00452;0.0299875;0.119743;0
0.00454;0.0320485;0.12784;0
0.00456;0.0338614;0.133371;0
0.00458;0.0358037;0.142823;0
0.0046;0.0377778;0.148212;0
0.00462;0.0396548;0.155746;0
0.00464;0.0415577;0.157595;0
0.00466;0.0435929;0.166173;0
0.00468;0.0454594;0.171482;0
0.0047;0.0468127;0.177685;0
0.00472;0.0453672;0.172514;0
0.00474;0.0434033;0.167687;0
0.00476;0.0414686;0.160371;0
0.00478;0.0395907;0.156212;0
0.0048;0.0377609;0.142956;0
0.00482;0.0357188;0.14063;0
0.00484;0.0337507;0.135722;0
0.00486;0.0318864;0.126723;0
0.00488;0.0299351;0.119424;0
0.0049;0.0280769;0.116349;0
0.00492;0.0261977;0.105537;0
0.00494;0.0242158;0.101228;0
0.00496;0.0224019;0.0912944;0
0.00498;0.0205614;0.0853748;0
0.005;0.0184114;0.0802522;0
0.00502;0.0165946;0.0781563;0
0.00504;0.0146947;0.0672397;0
0.00506;0.0125626;0.0613606;0
0.00508;0.0107616;0.0596976;0
0.0051;0.00870853;0.0506705;0
0.00512;0.00685315;0.0480567;-1.60068e-05
0.00514;0.00511737;0.0402556;0
0.00516;0.00304551;0.0350522;0
0.00518;0.00123857;0.0267575;0
0.0052;-0.000679088;0.0241032;0
0.00522;-0.00249592;0.0194946;0
0.00524;-0.00441456;0.010427;0
0.00526;-0.00652596;0.00371036;0
0.00528;-0.00849304;-0.00134738;0
0.0053;-0.0103385;-0.00568895;0
0.00532;-0.0122394;-0.00937503;0
0.00534;-0.0141946;-0.02015;0
0.00536;-0.0161063;-0.0232211;0
0.00538;-0.0180328;-0.0298083;0
0.0054;-0.0198971;-0.0360152;0
0.00542;-0.0221696;-0.0369418;0
0.00544;-0.0238747;-0.0443423;0
0.00546;-0.0256688;-0.0500353;0
0.00548;-0.0278089;-0.0571283;0
0.0055;-0.0296879;-0.0599525;0
0.00552;-0.0314781;-0.0678831;0
0.00554;-0.0334334;-0.0705617;0
0.00556;-0.0358442;-0.0742437;0
0.00558;-0.0373507;-0.0778973;0
0.0056;-0.039303;-0.08794;0
0.00562;-0.0413463;-0.0906146;0
0.00564;-0.0429306;-0.0958869;0
0.00566;-0.0450223;-0.099933;0
0.00568;-0.047108;-0.110793;0
0.0057;-0.0483444;-0.10807;0
0.00572;-0.0475715;-0.111873;-1.60068e-05
0.00574;-0.045565;-0.102527;-0.000256109
0.00576;-0.0432203;-0.102065;0
0.00578;-0.0414114;-0.0925649;-4.80204e-05
0.0058;-0.0395225;-0.0867181;0
0.00582;-0.0376047;-0.0787997;0
0.00584;-0.035789;-0.0801511;0
0.00586;-0.0339365;-0.066916;0
0.00588;-0.0317025;-0.0703594;0
0.0059;-0.0299678;-0.061223;0
0.00592;-0.0280482;-0.0579577;0
0.00594;-0.0260771;-0.0499827;0
0.00596;-0.02428;-0.0464989;0
0.00598;-0.0221331;-0.0425822;0
0.006;-0.020255;-0.0347649;-8.0034e-05
0.00602;-0.0184954;-0.0310667;0
0.00604;-0.0163129;-0.0252563;0
0.00606;-0.0146127;-0.0181998;0
0.00608;-0.0126871;-0.0130166;0
0.0061;-0.0105896;-0.00755425;0
0.00612;-0.00879847;8.0924e-05;0
0.00614;-0.00670093;0.000137571;0
0.00616;-0.0049691;0.011916;0
0.00618;-0.00298225;0.011653;0
0.0062;-0.000858003;0.0224159;0
0.00622;0.00106558;0.0231968;0
0.00624;0.00280828;0.0344372;0
0.00626;0.00472099;0.0356632;0
0.00628;0.00670191;0.0444475;0
0.0063;0.00854839;0.0526896;0
0.00632;0.0104532;0.0569664;0
0.00634;0.0123451;0.0617895;0
0.00636;0.0143152;0.0707518;0
0.00638;0.0162832;0.0755101;0
0.0064;0.0182286;0.0806771;0
0.00642;0.0201284;0.0887857;0
0.00644;0.0219995;0.0945677;0
0.00646;0.0239251;0.100532;0
0.00648;0.0259931;0.106423;0
0.0065;0.0276803;0.112165;0
0.00652;0.0296642;0.117724;0
0.00654;0.0314653;0.121965;0
0.00656;0.0333395;0.130389;0
0.00658;0.0354894;0.138534;0
0.0066;0.0374111;0.143409;0
0.00662;0.0392753;0.153149;0
0.00664;0.0410844;0.157923;0
0.00666;0.0431867;0.166809;0
0.00668;0.0451037;0.168909;0
0.0067;0.0467108;0.178526;0
0.00672;0.0457388;0.172906;0
0.00674;0.0438006;0.165708;0
0.00676;0.0418175;0.158826;0
0.00678;0.0399445;0.155746;0
0.0068;0.0381839;0.146185;0
0.00682;0.036211;0.141346;0
0.00684;0.0341678;0.137101;0
0.00686;0.0323737;0.128345;-4.80204e-05
0.00688;0.0302861;0.12457;0
0.0069;0.0284148;0.116583;0
0.00692;0.0265772;0.107944;0
0.00694;0.0245469;0.108738;0
0.00696;0.0227469;0.0922372;0
0.00698;0.0209349;0.0870378;0
0.007;0.0188473;0.0847395;0
0.00702;0.0169395;0.0777274;-0.000160068
0.00704;0.0151138;0.0719738;0
0.00706;0.01313;0.0694773;0
0.00708;0.011159;0.0551214;0
0.0071;0.00921066;0.0543242;0
0.00712;0.00735629;0.0471544;0
0.00714;0.00546038;0.039066;0
0.00716;0.00355656;0.0353678;0
0.00718;0.00173281;0.0282667;0
0.0072;-0.000111698;0.0204333;0
0.00722;-0.00216082;0.0141212;0
0.00724;-0.00406464;0.00985249;0
0.00726;-0.00600503;0.00711322;0
0.00728;-0.00796223;0.00236703;0
0.0073;-0.00986603;-0.00922128;0
0.00732;-0.0119309;-0.00870336;0
0.00734;-0.0137883;-0.0171356;0
0.00736;-0.0157109;-0.0143033;0
0.00738;-0.01776;-0.0278823;0
0.0074;-0.0196312;-0.0317384;0
0.00742;-0.0213857;-0.0396122;0
0.00744;-0.0234546;-0.0464139;0
0.00746;-0.0253199;-0.0476076;0
0.00748;-0.0271901;-0.0571849;0
0.0075;-0.0292313;-0.0584109;0
0.00752;-0.0311728;-0.0665559;0
0.00754;-0.0330993;-0.070331;0
0.00756;-0.0350298;-0.0768899;0
0.00758;-0.037065;-0.0761008;0
0.0076;-0.0388414;-0.0846828;0
0.00762;-0.0407767;-0.086969;0
0.00764;-0.0426718;-0.0946852;0
0.00766;-0.0446586;-0.0959395;0
0.00768;-0.0463202;-0.105335;-0.000128054
0.0077;-0.0487974;-0.106719;-3.20136e-05
0.00772;-0.0475637;-0.10404;0
0.00774;-0.0455857;-0.0995001;0
0.00776;-0.0440131;-0.0933943;0
0.00778;-0.0414726;-0.100253;0
0.0078;-0.0402231;-0.0782778;0
0.00782;-0.0376313;-0.0908331;0
0.00784;-0.0367132;-0.0818869;0
0.00786;-0.0338644;-0.0633594;0
0.00788;-0.0317629;-0.0693357;0
0.0079;-0.0311321;-0.0660299;0
0.00792;-0.0279117;-0.0489306;0
0.00794;-0.0258438;-0.0489185;0
0.00796;-0.0257054;-0.0444434;0
0.00798;-0.0217624;-0.0461105;0
0.008;-0.0203073;-0.0382163;-0.000144061
0.00802;-0.0197479;-0.0310222;0
0.00804;-0.0157158;-0.0208177;0
0.00806;-0.0151474;-0.0181108;0
0.00808;-0.0133899;-0.0168848;0
0.0081;-0.0103464;-0.00793864;0
0.00812;-0.00943406;-0.00048959;0
0.00814;-0.00750753;0.00553115;0
0.00816;-0.00467948;0.00685425;0
0.00818;-0.00363267;0.0115559;0
0.0082;-0.00122967;0.0220558;0
0.00822;0.00076805;0.0232333;0
0.00824;0.0021628;0.0318031;0
0.00826;0.00455987;0.0376984;0
0.00828;0.00643502;0.0412186;0
0.0083;0.00789304;0.0478786;0
0.00832;0.0101823;0.0582005;0
0.00834;0.0120061;0.0653178;0
0.00836;0.0139741;0.0638247;0
0.00838;0.0161725;0.0712697;0
0.0084;0.0179132;0.0807096;0
0.00842;0.0197982;0.0864996;0
0.00844;0.0218098;0.095547;0
0.00846;0.0235119;0.0966516;0
0.00848;0.0255373;0.106565;0
0.0085;0.0275024;0.106824;0
0.00852;0.0292294;0.116624;0
0.00854;0.0312804;0.123118;0
0.00856;0.0330598;0.127103;0
0.00858;0.0349458;0.137134;0
0.0086;0.03699;0.141682;0
0.00862;0.0387514;0.147346;0
0.00864;0.0410161;0.156552;0
0.00866;0.0429051;0.159934;0
0.00868;0.0445665;0.167047;0
0.0087;0.0464972;0.175334;0
0.00872;0.0461521;0.174023;0
0.00874;0.0441643;0.168803;0
0.00876;0.0422891;0.162491;0
0.00878;0.0403527;0.153137;0
0.0088;0.03843;0.148301;0
0.00882;0.0365816;0.140351;0
0.00884;0.0345543;0.134366;0
0.00886;0.032694;0.128758;0
0.00888;0.0305816;0.121083;0
0.0089;0.0289051;0.112962;0
0.00892;0.0267957;0.107839;0
0.00894;0.025048;0.105994;0
0.00896;0.0231689;0.0950371;0
0.00898;0.0212612;0.09004;0
0.009;0.0192812;0.0805922;0
0.00902;0.0174288;0.074531;0
0.00904;0.0154934;0.0716056;0
0.00906;0.0134423;0.067341;0
0.00908;0.0115692;0.0614537;0
0.0091;0.00954774;0.0541908;0
0.00912;0.00773883;0.0480647;0
0.00914;0.00583205;0.0423071;0
0.00916;0.00388671;0.0400897;0
0.00918;0.00208273;0.025576;0
0.0092;0.000120594;0.0289546;0
0.00922;-0.00171502;0.0175807;0
0.00924;-0.00373449;0.0131946;0
0.00926;-0.00565807;0.0081895;0
0.00928;-0.00761428;-0.00171154;0
0.0093;-0.00961;0.00154969;0
0.00932;-0.0114604;-0.0095571;0
0.00934;-0.0133909;-0.0153513;0
0.00936;-0.0154312;-0.0211575;0
0.00938;-0.0173251;-0.0247668;0
0.0094;-0.0191716;-0.0312366;0
0.00942;-0.0211406;-0.032495;0
0.00944;-0.0229545;-0.0460295;0
0.00946;-0.0248544;-0.0477654;0
0.00948;-0.0267849;-0.0500596;0
0.0095;-0.0289684;-0.0609559;0
0.00952;-0.0307567;-0.0642901;0
0.00954;-0.0326564;-0.067094;0
0.00956;-0.0345652;-0.0736368;0
0.00958;-0.0364669;-0.0758136;0
0.0096;-0.0384163;-0.0818546;0
0.00962;-0.0402203;-0.0898216;0
0.00964;-0.0424997;-0.0960082;-1.60068e-05
0.00966;-0.0442958;-0.0995284;-0.000160068
0.00968;-0.0461521;-0.102802;0
0.0097;-0.0477693;-0.109086;0
0.00972;-0.0479443;-0.104509;0
0.00974;-0.0461788;-0.101341;0
0.00976;-0.0439805;-0.0969226;0
0.00978;-0.0423682;-0.0978897;0
0.0098;-0.0402419;-0.086269;0
0.00982;-0.0382403;-0.0819395;0
0.00984;-0.036815;-0.0779297;0
0.00986;-0.0344999;-0.0735639;0
0.00988;-0.0324064;-0.0672357;0
0.0099;-0.0308831;-0.0636103;0
0.00992;-0.0286451;-0.0558699;0
0.00994;-0.026853;-0.0522567;0
0.00996;-0.0250866;-0.047126;0
0.00998;-0.022821;-0.0407573;0
0.01;-0.0211001;-0.0347245;0
0.01002;-0.0190559;-0.0333204;0
0.01004;-0.0170641;-0.0237592;0
0.01006;-0.0153619;-0.018042;0
0.01008;-0.0133623;-0.00926578;0
0.0101;-0.0112697;-0.00685831;0
0.01012;-0.00954476;-0.00226992;0
0.01014;-0.00748875;0.00377915;0
0.01016;-0.00561261;0.0071213;0
0.01018;-0.00362773;0.0157721;0
0.0102;-0.00165274;0.019272;0
0.01022;0.00028666;0.0283396;0
0.01024;0.00209064;0.0365857;0
0.01026;0.00401621;0.038192;0
0.01028;0.0059991;0.0408828;0
0.0103;0.00767755;0.0483844;0
0.01032;0.00967327;0.0579618;0
0.01034;0.0117135;0.0594144;0
0.01036;0.0135965;0.068053;0
0.01038;0.015527;0.0719576;0
0.0104;0.0174496;0.0804101;0
0.01042;0.0194968;0.0818101;0
0.01044;0.0214134;0.0890649;0
0.01046;0.0232668;0.0964169;0
0.01048;0.0251914;0.104845;0
0.0105;0.02686;0.108094;0
0.01052;0.0288993;0.11522;0
0.01054;0.0308031;0.12366;0
0.01056;0.0327968;0.128471;0
0.01058;0.0344674;0.138991;0
0.0106;0.036464;0.143049;0
0.01062;0.0385666;0.147816;0
0.01064;0.0404811;0.156106;0
0.01066;0.0425235;0.161516;0
0.01068;0.0442788;0.167958;0
0.0107;0.0462155;0.17302;0
0.01072;0.0464903;0.17533;0
0.01074;0.0446852;0.167416;0
0.01076;0.0428033;0.164349;0
0.01078;0.0407628;0.15522;0
0.0108;0.0389126;0.149908;0
0.01082;0.0369672;0.141127;0
0.01084;0.0349269;0.138069;0
0.01086;0.0330913;0.127791;0
0.01088;0.0311806;0.121936;0
0.0109;0.0293756;0.118578;0
0.01092;0.0274066;0.113269;0
0.01094;0.0254593;0.105238;0
0.01096;0.0235347;0.100075;0
0.01098;0.0216655;0.0941105;0
0.011;0.0197953;0.0851482;0
0.01102;0.017758;0.0810899;0
0.01104;0.0160746;0.0730258;0
0.01106;0.0139672;0.0657345;0
0.01108;0.0120357;0.061304;0
0.0111;0.010126;0.0591028;0
0.01112;0.0082044;0.0483844;0
0.01114;0.00623337;0.0463897;0
0.01116;0.0045144;0.0394869;0
0.01118;0.00228241;0.0332921;0
0.0112;0.000429001;0.0249731;0
0.01122;-0.00130974;0.0160594;-1.60068e-05
0.01124;-0.00326694;0.014101;0
0.01126;-0.00532199;0.0100629;0
0.01128;-0.00708149;0.00396528;0
0.0113;-0.00923736;-0.00444678;0
0.01132;-0.0110562;-0.00876406;0
0.01134;-0.0131527;-0.0142305;0
0.01136;-0.0150101;-0.0190252;0
0.01138;-0.0168229;-0.0235327;0
0.0114;-0.0187584;-0.0299176;0
0.01142;-0.0206899;-0.0335915;0
0.01144;-0.0226461;-0.0467336;0
0.01146;-0.0246172;-0.0442411;0
0.01148;-0.0266188;-0.0514393;0
0.0115;-0.0283338;-0.0531954;0
0.01152;-0.0305114;-0.0600456;0
0.01154;-0.0324132;-0.0675391;0
0.01156;-0.0342271;-0.0694408;0
0.01158;-0.0359629;-0.0755588;0
0.0116;-0.0379517;-0.0851644;-1.60068e-05
0.01162;-0.0400474;-0.0884458;-4.80204e-05
0.01164;-0.0421557;-0.0944141;0
0.01166;-0.043923;-0.0991117;-0.000144061
0.01168;-0.0457589;-0.0989619;0
0.0117;-0.0477762;-0.107856;0
0.01172;-0.048305;-0.107471;0
0.01174;-0.0464546;-0.103639;0
0.01176;-0.0445685;-0.100257;0
0.01178;-0.0425828;-0.0909221;0
0.0118;-0.0406997;-0.0889192;0
0.01182;-0.0389393;-0.0813246;0
0.01184;-0.0368643;-0.0755101;0
0.01186;-0.034833;-0.0762627;0
0.01188;-0.0330578;-0.0697565;0
0.0119;-0.0308613;-0.0651398;0
0.01192;-0.0292877;-0.0584433;0
0.01194;-0.0273503;-0.0530659;0
0.01196;-0.0250728;-0.0462399;0
0.01198;-0.0234674;-0.0459041;0
0.012;-0.021449;-0.0350441;0
0.01202;-0.0193801;-0.0317991;0
0.01204;-0.0177343;-0.026539;0
0.01206;-0.0155794;-0.0213882;0
0.01208;-0.0136133;-0.0180015;0
0.0121;-0.0118924;-0.00976346;0
0.01212;-0.0098344;-0.00284043;0
0.01214;-0.00770522;-0.00312367;0
0.01216;-0.00614243;0.00763921;0
0.01218;-0.00389264;0.0106051;0
0.0122;-0.00195818;0.0185356;0
0.01222;-0.000132456;0.0224281;0
0.01224;0.0018455;0.0300511;0
0.01226;0.00352295;0.0371036;0
0.01228;0.00551672;0.0396973;0
0.0123;0.00754904;0.0475307;0
0.01232;0.00930358;0.0511885;0
0.01234;0.0112736;0.0633837;0
0.01236;0.0132931;0.0650507;0
0.01238;0.0152611;0.0683929;0
0.0124;0.0170839;0.0774037;0
0.01242;0.018881;0.0856175;0
0.01244;0.0209765;0.0879846;0
0.01246;0.0227983;0.0965383;0
0.01248;0.0246923;0.103858;0
0.0125;0.0266327;0.110259;0
0.01252;0.028402;0.118101;0
0.01254;0.0303977;0.122114;0
0.01256;0.0323955;0.124546;0
0.01258;0.0342222;0.131999;0
0.0126;0.036116;0.142527;0
0.01262;0.0380288;0.148386;0
0.01264;0.0399938;0.156701;0
0.01266;0.0420381;0.161978;0
0.01268;0.0439496;0.165057;0
0.0127;0.0457777;0.168957;0
0.01272;0.0467297;0.177859;0
0.01274;0.0450133;0.166;0
0.01276;0.043172;0.166335;0
0.01278;0.041103;0.157328;0
0.0128;0.0393931;0.151878;0
0.01282;0.0373557;0.142948;0
0.01284;0.0353808;0.136377;0
0.01286;0.0334877;0.132865;0
0.01288;0.0315236;0.124158;0
0.0129;0.0297089;0.114609;0
0.01292;0.0276547;0.109122;0
