t;vds;corrente;vg
0.00998;0.00104186;-0.00347776;0.186154
0.01996;0.00280927;0.0218009;0.191541
0.02994;0.0049177;0.0236298;0.191385
0.03992;0.00668412;0.021546;0.192199
0.0499;0.0087194;0.0288372;0.192184
0.05988;0.0105886;0.0460417;0.192795
0.06986;0.0124005;0.0505127;0.192952
0.07984;0.0144031;0.0614375;0.193987
0.08982;0.0163336;0.0615508;0.19303
0.0998;0.0183946;0.0606363;0.192859
0.10978;0.0202925;0.0702784;0.189848
0.11976;0.0219857;0.0846949;0.192481
0.12974;0.0239014;0.0827973;0.194018
0.13972;0.0259989;0.0908209;0.193031
0.1497;0.027961;0.101216;0.191996
0.15968;0.0296267;0.105578;0.192811
0.16966;0.0315691;0.109041;0.192341
0.17964;0.0334186;0.116523;0.193673
0.18962;0.0355358;0.125218;0.193234
0.1996;0.0376631;0.126335;0.191792
0.20958;0.0393672;0.14016;0.191306
0.21956;0.0411169;0.150102;0.192199
0.22954;0.0429634;0.151186;0.194285
0.23952;0.0452479;0.153509;0.191416
0.2495;0.0470962;0.167145;0.19267
0.25948;0.0460481;0.16519;0.194112
0.26946;0.0438787;0.159457;0.194771
0.27944;0.0419707;0.154172;0.193124
0.28942;0.0402647;0.143668;0.19325
0.2994;0.0385972;0.137016;0.19441
0.30938;0.0364956;0.131987;0.1943
0.31936;0.0343407;0.121212;0.19314
0.32934;0.0324093;0.116535;0.189754
0.33932;0.0306369;0.116636;0.192231
0.3493;0.0288289;0.107831;0.192638
0.35928;0.0268233;0.0984682;0.194018
0.36926;0.0247722;0.0853019;0.193673
0.37924;0.0229623;0.0810454;0.194473
0.38922;0.0212977;0.0841973;0.193517
0.3992;0.0194285;0.0735882;0.190664
0.40918;0.0174002;0.069453;0.189378
0.41916;0.0152858;0.0651762;0.192513
0.42914;0.0135402;0.0449168;0.189926
0.43912;0.011497;0.0443342;0.188751
0.4491;0.00960605;0.0395071;0.191572
0.45908;0.00764394;0.0312609;0.192999
0.46906;0.00582908;0.0267939;0.192513
0.47904;0.00390747;0.0213477;0.192341
0.48902;0.00188306;0.0139796;0.190381
0.499;2.07581e-05;0.0123732;0.191729
0.50898;-0.00188009;0.00544213;0.192607
0.51896;-0.00369791;-0.00514676;0.192842
0.52894;-0.00577966;-0.00764326;0.191918
0.53892;-0.00773092;-0.016294;0.192937
0.5489;-0.00952796;-0.026891;0.192168
0.55888;-0.011412;-0.0258592;0.191792
0.56886;-0.013467;-0.0319164;0.189942
0.57884;-0.015363;-0.0439215;0.191777
0.58882;-0.0172747;-0.0492989;0.192121
0.5988;-0.0191587;-0.0530214;0.192466
0.60878;-0.021197;-0.0536242;0.19325
0.61876;-0.0230484;-0.0607699;0.192262
0.62874;-0.0247862;-0.0669767;0.193156
0.63872;-0.0270073;-0.0735234;0.191729
0.6487;-0.028836;-0.0814499;0.193454
0.65868;-0.030632;-0.0823239;0.193187
0.66866;-0.032784;-0.0946405;0.192561
0.67864;-0.0344367;-0.101851;0.192607
0.68862;-0.0363779;-0.108491;0.192325
0.6986;-0.0385518;-0.110207;0.192231
0.70858;-0.040401;-0.116025;0.190789
0.71856;-0.0421676;-0.120961;0.194394
0.72854;-0.044341;-0.123713;0.19151
0.73852;-0.0462036;-0.131408;0.19361
0.7485;-0.0478966;-0.135094;0.193814
0.75848;-0.047384;-0.131404;0.192733
0.76846;-0.0454986;-0.131315;0.191636
0.77844;-0.0435684;-0.118449;0.194488
0.78842;-0.0416831;-0.117765;0.190741
0.7984;-0.0397943;-0.113002;0.190397
0.80838;-0.0378577;-0.110923;0.191008
0.81836;-0.0359214;-0.103158;0.190569
0.82834;-0.0341381;-0.0981041;0.192419
0.83832;-0.0321138;-0.0911851;0.192074
0.8483;-0.0301516;-0.0857874;0.190522
0.85828;-0.0281134;-0.0790788;0.191604
0.86826;-0.0263094;-0.0697362;0.191463
0.87824;-0.0243601;-0.0657143;0.191369
0.88822;-0.022484;-0.0637964;0.191071
0.8982;-0.0204912;-0.0635173;0.191024
0.90818;-0.0186061;-0.054041;0.192733
0.91816;-0.016647;-0.0431081;0.190946
0.92814;-0.0148549;-0.0391388;0.189895
0.93812;-0.012866;-0.0315158;0.191917
0.9481;-0.0110018;-0.0261951;0.189895
0.95808;-0.00900803;-0.0185639;0.19104
0.96806;-0.00707655;-0.0161726;0.190726
0.97804;-0.00508179;-0.00615831;0.19035
0.98802;-0.003175;-0.00195027;0.191949
0.998;-0.00114466;0.00443868;0.193219
1.00798;0.000652399;0.0148819;0.192686
1.01796;0.00246528;0.0196928;0.19372
1.02794;0.00439677;0.0267818;0.19325
1.03792;0.00636286;0.0321956;0.193485
1.0479;0.00828645;0.0364562;0.191839
1.05788;0.0102071;0.0389487;0.192576
1.06786;0.0120812;0.045811;0.193642
1.07784;0.014157;0.0572416;0.194457
1.08782;0.0160717;0.0640635;0.193234
1.0978;0.0178638;0.0726819;0.193767
1.10778;0.0197073;0.0776465;0.194849
1.11776;0.0216269;0.0845007;0.194332
1.12774;0.023593;0.0877377;0.19314
1.13772;0.0255976;0.0968579;0.193406
1.1477;0.0273562;0.109021;0.193454
1.15768;0.0292135;0.116256;0.192764
1.16766;0.0312478;0.117182;0.19361
1.17764;0.033047;0.127678;0.194034
1.18762;0.0350397;0.130061;0.193125
1.1976;0.0368961;0.139189;0.193799
1.20758;0.0388622;0.141447;0.191933
1.21756;0.0407076;0.151445;0.192137
1.22754;0.042745;0.157519;0.19441
1.23752;0.0444775;0.167387;0.192215
1.2475;0.0463627;0.180885;0.193359
1.25748;0.0461223;0.176232;0.194128
1.26746;0.0443353;0.164296;0.19126
1.27744;0.0424809;0.156746;0.190679
1.28742;0.0405899;0.147852;0.191792
1.2974;0.0385962;0.148524;0.190726
1.30738;0.036714;0.142099;0.192231
1.31736;0.0347251;0.134666;0.192858
1.32734;0.0329163;0.125894;0.194112
1.33732;0.0308612;0.116798;0.192952
1.3473;0.0289446;0.109972;0.193313
1.35728;0.0270467;0.0999451;0.192733
1.36726;0.0253159;0.0929048;0.192168
1.37724;0.0234912;0.0905174;0.193987
1.38722;0.02162;0.0863985;0.192043
1.3972;0.019475;0.0872117;0.190883
1.40718;0.0173241;0.0759633;0.192811
1.41716;0.015785;0.0545873;0.191777
1.42714;0.0139069;0.0511682;0.191274
1.43712;0.0118647;0.0492584;0.191588
1.4471;0.00989468;0.0392157;0.192357
1.45708;0.00802846;0.0398429;0.189801
1.46706;0.00608609;0.0384915;0.192278
1.47704;0.00438886;0.01892;0.190977
1.48702;0.0023259;0.0176859;0.189346
1.497;6.22742e-05;0.0159137;0.192701
1.50698;-0.00166658;-0.0113577;0.192466
1.51696;-0.002832;-0.0188674;0.189738
1.52694;-0.00529629;0.0119484;0.191259
1.53692;-0.00751642;-0.01279;0.19372
1.5469;-0.00897344;-0.0428694;0.192278
1.55688;-0.0108683;-0.0157559;0.191243
1.56686;-0.0133385;-0.0241962;0.194128
1.57684;-0.0150733;-0.0543;0.193203
1.58682;-0.0169495;-0.0453983;0.192309
1.5968;-0.0188207;-0.0483925;0.194645
1.60678;-0.0206603;-0.0660016;0.193344
1.61676;-0.0226184;-0.0667501;0.191619
1.62674;-0.0244719;-0.0705374;0.190898
1.63672;-0.0264656;-0.0709501;0.193955
1.6467;-0.0284811;-0.081636;0.191886
1.65668;-0.0303928;-0.0944504;0.192466
1.66666;-0.0321087;-0.104708;0.190695
1.67664;-0.0340976;-0.104246;0.1906
1.68662;-0.0361862;-0.100305;0.193124
1.6966;-0.0381959;-0.11178;0.192184
1.70658;-0.0398425;-0.121495;0.193218
1.71656;-0.0416152;-0.124097;0.193626
1.72654;-0.04375;-0.129082;0.193046
1.73652;-0.0457737;-0.138534;0.192638
1.7465;-0.047702;-0.139383;0.191792
1.75648;-0.0476874;-0.13904;0.190946
1.76646;-0.0457418;-0.14065;0.190256
1.77644;-0.043765;-0.134378;0.191478
1.78642;-0.0420626;-0.121544;0.191839
1.7964;-0.0403645;-0.115001;0.19347
1.80638;-0.0380702;-0.122232;0.19013
1.81636;-0.0359787;-0.112578;0.193187
1.82634;-0.0342577;-0.098792;0.19314
1.83632;-0.0325822;-0.0918203;0.193909
1.8463;-0.030714;-0.0898094;0.19256
1.85628;-0.0286511;-0.0829673;0.191713
1.86626;-0.0262313;-0.0833395;0.192388
1.87624;-0.0246606;-0.0707114;0.19372
1.88622;-0.0229603;-0.0690768;0.190679
1.8962;-0.021021;-0.0602924;0.191369
1.90618;-0.0189669;-0.0503711;0.194034
1.91616;-0.016817;-0.047555;0.19118
1.92614;-0.0152038;-0.0373464;0.191682
1.93612;-0.0134621;-0.038799;0.192074
1.9461;-0.011415;-0.0373221;0.193062
1.95608;-0.00931445;-0.0232252;0.191823
1.96606;-0.00728611;-0.0138258;0.192372
1.97604;-0.0052953;-0.00647795;0.191729
1.98602;-0.00367716;0.00406643;0.192764
1.996;-0.0016221;-0.00400169;0.191102
2.00598;0.000305441;0.0116368;0.190961
2.01596;0.00216478;0.0182443;0.193517
2.02594;0.00412395;0.0215298;0.19187
2.03592;0.00608411;0.0290962;0.192795
2.0459;0.00776354;0.0393209;0.191604
2.05588;0.0097553;0.0456694;0.192874
2.06586;0.011667;0.0543404;0.191463
2.07584;0.0136638;0.0570433;0.194222
2.08582;0.0156012;0.0624207;0.194849
2.0958;0.0173537;0.0669322;0.193642
2.10578;0.0193129;0.0775008;0.193532
2.11576;0.0213778;0.0807621;0.19314
2.12574;0.023341;0.0937625;0.191588
2.13572;0.0249364;0.104821;0.192199
2.1457;0.0268937;0.104882;0.190679
2.15568;0.0287371;0.113508;0.190209
2.16566;0.030816;0.120929;0.191619
2.17564;0.0327257;0.126857;0.194582
2.18562;0.0347195;0.134981;0.193407
2.1956;0.0366231;0.141791;0.194018
2.20558;0.0383965;0.148698;0.192796
2.21556;0.0403575;0.156333;0.192341
2.22554;0.0423228;0.15993;0.191243
2.23552;0.0441631;0.170944;0.191447
2.2455;0.0461275;0.17529;0.192215
2.25548;0.0467059;0.178648;0.190757
2.26546;0.0446951;0.176467;0.191761
2.27544;0.0427945;0.167205;0.192545
2.28542;0.0409676;0.16012;0.191761
2.2954;0.0388869;0.153505;0.19325
2.30538;0.0370956;0.14205;0.190585
2.31536;0.035189;0.135111;0.190789
2.32534;0.0331694;0.126893;0.19162
2.33532;0.0313754;0.12211;0.192717
2.3453;0.0293994;0.117368;0.191996
2.35528;0.0274382;0.109814;0.191463
2.36526;0.0255928;0.101329;0.192921
2.37524;0.0237107;0.0923019;0.194112
2.38522;0.0218662;0.0878874;0.192513
2.3952;0.0199683;0.0813488;0.192121
2.40518;0.0180269;0.0727749;0.19256
2.41516;0.0162041;0.0645207;0.192435
2.42514;0.0143409;0.0585242;0.193516
2.43512;0.012272;0.0503752;0.192905
2.4451;0.0103514;0.0445607;0.193548
2.45508;0.00829139;0.0355984;0.191918
2.46506;0.00648939;0.0303505;0.192952
2.47504;0.00468738;0.0230067;0.191855
2.48502;0.00270647;0.0199194;0.192419
2.495;0.000828348;0.0137651;0.192592
2.50498;-0.0010132;0.00617045;0.191761
2.51496;-0.00299906;-0.00167108;0.191964
2.52494;-0.00498393;-0.00480284;0.192403
2.53492;-0.00700834;-0.0172772;0.192968
2.5449;-0.00879453;-0.0247465;0.189205
2.55488;-0.0106558;-0.0294766;0.191086
2.56486;-0.0125873;-0.0373788;0.19035
2.57484;-0.014586;-0.0417284;0.190412
2.58482;-0.0165521;-0.0471139;0.189582
2.5948;-0.018447;-0.0510266;0.190475
2.60478;-0.0203172;-0.0614658;0.189472
2.61476;-0.0222378;-0.0655606;0.18897
2.62474;-0.0242187;-0.0739483;0.189895
2.63472;-0.0259643;-0.0786905;0.191432
2.6447;-0.0280303;-0.0865238;0.191557
2.65468;-0.0299064;-0.0915047;0.190585
2.66466;-0.0318369;-0.0960891;0.191243
2.67464;-0.0337694;-0.105695;0.192356
2.68462;-0.0357532;-0.111651;0.191228
2.6946;-0.0375969;-0.119711;0.190914
2.70458;-0.0394729;-0.12608;0.190303
2.71456;-0.0412959;-0.126954;0.188515
2.72454;-0.0434239;-0.132177;0.192012
2.73452;-0.0452182;-0.144;0.193031
2.7445;-0.0470201;-0.14156;0.190256
2.75448;-0.0480045;-0.150187;0.189096
2.76446;-0.0461847;-0.144672;0.189848
2.77444;-0.0442641;-0.13891;0.191102
2.78442;-0.042294;-0.130559;0.190491
2.7944;-0.0403082;-0.127225;0.190334
2.80438;-0.0384567;-0.122102;0.191478
2.81436;-0.0366488;-0.111707;0.192168
2.82434;-0.0348122;-0.104428;0.192748
2.83432;-0.0328788;-0.104643;0.190899
2.8443;-0.0307683;-0.100152;0.191588
2.85428;-0.0289575;-0.0935642;0.189064
2.86426;-0.0269844;-0.0842216;0.188907
2.87424;-0.0250599;-0.0734465;0.190773
2.88422;-0.0232658;-0.0650184;0.190867
2.8942;-0.0212711;-0.065245;0.190992
2.90418;-0.0192259;-0.0534098;0.190209
2.91416;-0.0175297;-0.0538428;0.191792
2.92414;-0.0155606;-0.0472637;0.192231
2.93412;-0.0135155;-0.041429;0.192623
2.9441;-0.0115059;-0.0343037;0.190209
2.95408;-0.00946767;-0.0241153;0.191243
2.96406;-0.00784163;-0.0145016;0.192059
2.97404;-0.00595561;-0.00860626;0.193767
2.98402;-0.00391736;-0.00826637;0.192607
2.994;-0.001888;-0.00878024;0.191431
3.00398;1.48271e-05;0.0105727;0.190945
3.01396;0.00172688;0.0140646;0.189268
3.02394;0.00370385;0.0188512;0.19267
3.03392;0.00560667;0.0394383;0.19325
3.0439;0.00751247;0.0368042;0.194457
3.05388;0.00944395;0.0420723;0.192075
3.06386;0.0110601;0.0588519;0.19187
3.07384;0.0130094;0.0514109;0.191854
3.08382;0.0155023;0.0402111;0.190758
3.0938;0.017419;0.0791032;0.191337
3.10378;0.0187317;0.0905499;0.192215
3.11376;0.0210279;0.0706264;0.190742
3.12374;0.0230544;0.094228;0.189519
3.13372;0.0246449;0.116972;0.194269
3.1437;0.0263262;0.105314;0.193924
3.15368;0.0284406;0.102142;0.190429
3.16366;0.0302564;0.124518;0.190114
3.17364;0.032353;0.125274;0.19347
3.18362;0.0341471;0.129519;0.191243
3.1936;0.0362682;0.142936;0.193799
3.20358;0.0380426;0.157041;0.19441
3.21356;0.0398692;0.161925;0.192043
3.22354;0.0417673;0.164567;0.194238
3.23352;0.0438399;0.16549;0.192404
3.2435;0.0458221;0.173097;0.19198
3.25348;0.0467128;0.183406;0.192325
3.26346;0.0450085;0.181496;0.19256
3.27344;0.0432393;0.165053;0.19314
3.28342;0.0414064;0.165643;0.190554
3.2934;0.0393209;0.157697;0.192419
3.30338;0.0374723;0.146193;0.191682
3.31336;0.0353413;0.137684;0.19024
3.32334;0.033474;0.13312;0.193015
3.33332;0.0317085;0.124198;0.191416
3.3433;0.0299184;0.117716;0.192231
3.35328;0.027892;0.11592;0.191526
3.36326;0.0258231;0.108883;0.193657
3.37324;0.0239737;0.0951787;0.192435
3.38322;0.0224454;0.0820487;0.194285
3.3932;0.0205525;0.0880007;0.193375
3.40318;0.0182108;0.0769304;0.193924
3.41316;0.0163781;0.0677414;0.193892
3.42314;0.014581;0.0614415;0.194144
3.43312;0.0128146;0.0515971;0.191494
3.4431;0.0108802;0.0457706;0.193924
3.45308;0.00876881;0.038188;0.191322
3.46306;0.00669895;0.0324343;0.190962
3.47304;0.00489793;0.0315968;0.190538
3.48302;0.00324025;0.021898;0.193202
3.493;0.00128799;0.0181027;0.19129
3.50298;-0.000653387;0.00396932;0.192952
3.51296;-0.00266297;-0.00857389;0.19314
3.52294;-0.00467355;-0.00496064;0.191901
3.53292;-0.00632332;-0.0115155;0.192795
3.5429;-0.00821232;-0.0209957;0.191823
3.55288;-0.0103464;-0.0207448;0.192623
3.56286;-0.0124044;-0.0351169;0.19245
3.57284;-0.014158;-0.0465596;0.19002
3.58282;-0.0159995;-0.0463694;0.192074
3.5928;-0.0179775;-0.0548179;0.192074
3.60278;-0.0198724;-0.0661675;0.190475
3.61276;-0.0218661;-0.0632219;0.193156
3.62274;-0.0237867;-0.0730379;0.192827
3.63272;-0.0256115;-0.0795442;0.192058
3.6427;-0.0275854;-0.0854476;0.190131
3.65268;-0.0295219;-0.0958909;0.189848
3.66266;-0.03132;-0.0992048;0.192717
3.67264;-0.0332476;-0.107625;0.193736
3.68262;-0.035349;-0.115309;0.191431
3.6926;-0.0371521;-0.115835;0.193015
3.70258;-0.0390915;-0.120447;0.192576
3.71256;-0.0409993;-0.128702;0.193187
3.72254;-0.0428873;-0.134107;0.191808
3.73252;-0.0447326;-0.145728;0.191196
3.7425;-0.0466662;-0.148321;0.190365
3.75248;-0.0479689;-0.15261;0.193548
3.76246;-0.0464686;-0.148099;0.19245
3.77244;-0.0445735;-0.140593;0.191134
3.78242;-0.0426075;-0.13361;0.192027
3.7924;-0.0407698;-0.126148;0.192043
3.80238;-0.0388503;-0.124833;0.191651
3.81236;-0.0369345;-0.118497;0.190616
3.82234;-0.0350555;-0.11227;0.192717
3.83232;-0.0330211;-0.104756;0.191118
3.8423;-0.0310975;-0.0984804;0.190804
3.85228;-0.0292768;-0.0931677;0.193752
3.86226;-0.0272811;-0.0864187;0.1943
3.87224;-0.0254504;-0.0782575;0.192357
3.88222;-0.0235653;-0.0750732;0.192858
3.8922;-0.0217179;-0.0663819;0.193438
3.90218;-0.0195837;-0.0602358;0.191118
3.91216;-0.0176434;-0.0552063;0.192341
3.92214;-0.0158542;-0.0414452;0.192278
3.93212;-0.0140364;-0.0408342;0.193282
3.9421;-0.012098;-0.0367678;0.192811
3.95208;-0.0100588;-0.0284043;0.193156
3.96206;-0.00809369;-0.0235165;0.19256
3.97204;-0.00626105;-0.012612;0.191871
3.98202;-0.00437107;-0.0052722;0.190476
3.992;-0.0023259;0.00226587;0.189534
4.00198;-0.000350911;0.00658316;0.193062
4.01196;0.00145999;0.0180703;0.193329
4.02194;0.00316314;0.0235448;0.191964
4.03192;0.00519843;0.0298285;0.19115
4.0419;0.00706172;0.039414;0.19118
4.05188;0.00910985;0.0396729;0.191886
4.06186;0.0108733;0.0476642;0.19463
4.07184;0.012785;0.0570433;0.19256
4.08182;0.014755;0.065427;0.190256
4.0918;0.0166282;0.073398;0.192623
4.10178;0.018448;0.0764772;0.192372
4.11176;0.0204744;0.0822633;0.190977
4.12174;0.0224217;0.0879967;0.192215
4.13172;0.0242899;0.0989823;0.192435
4.1417;0.0263094;0.105242;0.192278
4.15168;0.027968;0.116336;0.192984
4.16166;0.0298184;0.12544;0.193407
4.17164;0.0318794;0.130142;0.191855
4.18162;0.0337724;0.13734;0.1935
4.1916;0.0356574;0.142175;0.193328
4.20158;0.0376454;0.146121;0.193062
4.21156;0.0395243;0.15573;0.193532
4.22154;0.0415163;0.16689;0.19303
4.23152;0.0434358;0.174468;0.191949
4.2415;0.0452381;0.180218;0.192278
4.25148;0.0468156;0.189423;0.194332
4.26146;0.0454067;0.178243;0.190962
4.27144;0.0437502;0.166258;0.191274
4.28142;0.0417177;0.167306;0.192277
4.2914;0.0396935;0.161601;0.193219
4.30138;0.0378755;0.155123;0.193015
4.31136;0.0358779;0.143543;0.192278
4.32134;0.033893;0.137445;0.193908
4.33132;0.0320258;0.129592;0.19419
4.3413;0.0301091;0.12088;0.192137
4.35128;0.0282498;0.1159;0.190789
4.36126;0.0263697;0.105861;0.189503
4.37124;0.0244896;0.10128;0.191855
4.38122;0.022738;0.0927874;0.192623
4.3912;0.020589;0.0905458;0.192591
4.40118;0.0186002;0.0755344;0.191384
4.41116;0.016817;0.0702057;0.191541
4.42114;0.0150377;0.0633635;0.192105
4.43112;0.0130361;0.0563231;0.191509
4.4411;0.0111046;0.0525803;0.190773
4.45108;0.00921955;0.0450261;0.192089
4.46106;0.00725151;0.0394342;0.193861
4.47104;0.00545642;0.0276517;0.193986
4.48102;0.00339346;0.0271783;0.192467
4.491;0.00143725;0.0146958;0.191682
4.50098;-0.000211535;0.00163871;0.193281
4.51096;-0.00200267;-0.00219709;0.1914
4.52094;-0.00400237;-0.00137571;0.192168
4.53092;-0.00606928;-0.00959757;0.191196
4.5409;-0.00811149;-0.0137813;0.192169
4.55088;-0.010036;-0.0295696;0.192043
4.56086;-0.0117945;-0.0382891;0.19336
4.57084;-0.0136618;-0.0403689;0.191917
4.58082;-0.0156704;-0.0495416;0.190993
4.5908;-0.0175732;-0.0550121;0.191291
4.60078;-0.0194355;-0.0520746;0.190115
4.61076;-0.021445;-0.065512;0.191745
4.62074;-0.0234269;-0.0728882;0.193438
4.63072;-0.0255057;-0.0713547;0.19267
4.6407;-0.0274718;-0.0862083;0.19314
4.65068;-0.0288528;-0.116919;0.190475
4.66066;-0.0306825;-0.092144;0.191431
4.67064;-0.0330499;-0.0907037;0.192011
4.68062;-0.0348766;-0.123919;0.190585
4.6906;-0.0365164;-0.121977;0.189911
4.70058;-0.0387158;-0.105727;0.19198
4.71056;-0.0408153;-0.133638;0.192968
4.72054;-0.0423673;-0.144987;0.190287
4.73052;-0.0445922;-0.135782;0.191588
4.7405;-0.0462738;-0.152578;0.193313
4.75048;-0.0479036;-0.163645;0.191808
4.76046;-0.0467791;-0.155301;0.192607
4.77044;-0.0450391;-0.139825;0.192795
4.78042;-0.0432245;-0.136118;0.192717
4.7904;-0.041102;-0.131125;0.193689
4.80038;-0.0391726;-0.131044;0.192357
4.81036;-0.0371431;-0.12788;0.192168
4.82034;-0.0353017;-0.115944;0.191134
4.83032;-0.0336262;-0.100471;0.192388
4.8403;-0.031497;-0.102288;0.192639
4.85028;-0.0294844;-0.0980596;0.192858
4.86026;-0.0276794;-0.0888504;0.193046
4.87024;-0.0257469;-0.0882233;0.193234
4.88022;-0.0240122;-0.0743206;0.193031
4.8902;-0.0219205;-0.068923;0.191369
4.90018;-0.019911;-0.0666773;0.192387
4.91016;-0.0178984;-0.0611178;0.193375
4.92014;-0.0162022;-0.0430232;0.19383
4.93012;-0.0145791;-0.0310262;0.193501
4.9401;-0.0124647;-0.0394221;0.191682
4.95008;-0.0102347;-0.0364036;0.190115
4.96006;-0.00830029;-0.0223916;0.189189
4.97004;-0.00661295;-0.0199518;0.193125
4.98002;-0.004806;-0.0121588;0.19314
4.99;-0.00293184;0.00268668;0.194802
4.99998;-0.000593089;0.0039936;0.194049
5.00996;0.00132061;0.0108357;0.193391
5.01994;0.00299807;0.0169293;0.192607
5.02992;0.00481984;0.021639;0.193047
5.0399;0.0065487;0.0391874;0.191729
5.04988;0.00877377;0.0442613;0.19289
5.05986;0.0106746;0.0487486;0.192999
5.06984;0.012359;0.0560358;0.194786
5.07982;0.014332;0.0577838;0.192153
5.0898;0.0162981;0.066827;0.192858
5.09978;0.0182513;0.0780188;0.194677
5.10976;0.0204131;0.086091;0.192356
5.11974;0.0220163;0.0985937;0.192074
5.12972;0.0237383;0.0996578;0.19129
5.1397;0.0257963;0.10177;0.190742
5.14968;0.0276517;0.115794;0.192826
5.15966;0.0296158;0.125469;0.194159
5.16964;0.0314771;0.12625;0.194473
5.17962;0.0333247;0.135507;0.193329
5.1896;0.0352907;0.144198;0.191886
5.19958;0.0373093;0.150842;0.191588
5.20956;0.0391824;0.158506;0.1922
5.21954;0.041117;0.165324;0.191682
5.22952;0.0430553;0.170147;0.192357
5.2395;0.0448543;0.180764;0.191855
5.24948;0.0466218;0.186801;0.191071
5.25946;0.0458663;0.181444;0.191918
5.26944;0.043938;0.182925;0.194143
5.27942;0.0420764;0.172838;0.192685
5.2894;0.0401481;0.163572;0.193767
5.29938;0.0382155;0.155123;0.193187
5.30936;0.0362901;0.148645;0.192231
5.31934;0.0343852;0.138178;0.191792
5.32932;0.032517;0.1335;0.194724
5.3393;0.0305776;0.130138;0.193078
5.34928;0.0286303;0.118578;0.193783
5.35926;0.0267225;0.112181;0.1922
5.36924;0.0248523;0.100099;0.193501
