t;vds;corrente;vg
0.000499;-0.00954612;-0.0120073;0.451686
0.000998;-0.00900524;-0.0118936;0.460805
0.001497;-0.00852765;-0.0108959;0.46106
0.001996;-0.00807562;-0.0109;0.460646
0.002495;-0.00753191;-0.010337;0.461092
0.002994;-0.00714798;-0.0105026;0.460741
0.003493;-0.00667721;-0.0103122;0.461664
0.003992;-0.00608512;-0.0103702;0.460901
0.004491;-0.00555021;-0.0104654;0.460741
0.00499;-0.00505973;-0.00991064;0.462078
0.005489;-0.004512;-0.00999344;0.461633
0.005988;-0.00404027;-0.0101715;0.460837
0.006487;-0.00355179;-0.0101673;0.461664
0.006986;-0.00307513;-0.00909929;0.463065
0.007485;-0.00260043;-0.00903306;0.46246
0.007984;-0.0020833;-0.00851142;0.466183
0.008483;-0.00171718;-0.00872255;0.46281
0.008982;-0.00119412;-0.00848658;0.463764
0.009481;-0.000711538;-0.00804361;0.463192
0.00998;-0.000242772;-0.00776209;0.463096
0.010479;0.000246719;-0.0080643;0.461919
0.010978;0.000806277;-0.00698381;0.462683
0.011477;0.0012336;-0.00646633;0.463765
0.011976;0.0017596;-0.00619726;0.46071
0.012475;0.00223824;-0.00615172;0.460964
0.012974;0.00259156;-0.00615172;0.460837
0.013473;0.00318072;-0.00549764;0.461314
0.013972;0.00376888;-0.00464072;0.462619
0.014471;0.00427416;-0.00474422;0.460901
0.01497;0.0046482;-0.00441716;0.460614
0.015469;0.0052127;-0.00412323;0.460996
0.015968;0.00569333;-0.00411081;0.461951
0.016467;0.00612851;-0.00397834;0.461919
0.016966;0.00660224;-0.00410667;0.461091
0.017465;0.00714407;-0.00404871;0.460901
0.017964;0.00765915;-0.00412737;0.460582
0.018463;0.00809341;-0.00390796;0.460582
0.018962;0.00865293;-0.00329528;0.461505
0.019461;0.00913457;-0.00274055;0.46106
0.01996;0.00962996;-0.00236797;0.461442
0.020459;0.0101599;-0.00212371;0.462492
0.020958;0.010607;-0.00214441;0.461441
0.021457;0.0111182;-0.0020699;0.462778
0.021956;0.0116038;-0.00195398;0.463797
0.022455;0.0120981;-0.00158968;0.462396
0.022954;0.0125195;-0.000645809;0.462269
0.023453;0.0129706;-0.00118398;0.461155
0.023952;0.0135074;-0.00114672;0.460614
0.024451;0.0140473;-0.000451239;0.460614
0.02495;0.0144164;-0.00021527;0.460582
0.025449;0.0149709;-9.52154e-05;0.460582
0.025948;0.0154811;4.1398e-06;0.460582
0.026447;0.0159065;0.000244248;0.46106
0.026946;0.0163121;0.000856938;0.46211
0.027445;0.0168668;0.000699626;0.461092
0.027944;0.0173039;0.00132473;0.460996
0.028443;0.0176976;0.00178839;0.461919
0.028942;0.0181615;0.00189188;0.461123
0.029441;0.0186817;0.00194984;0.46106
0.02994;0.0191238;0.00206576;0.460996
0.030439;0.0196419;0.00205748;0.461378
0.030938;0.0201561;0.00206576;0.460582
0.031437;0.0206277;0.00223549;0.460582
0.031936;0.0211173;0.00299721;0.460773
0.032435;0.0216857;0.00319592;0.46071
0.032934;0.0221297;0.00360577;0.460582
0.033433;0.0225898;0.00394936;0.460614
0.033932;0.0230376;0.00413151;0.460678
0.034431;0.0235835;0.00410667;0.461855
0.03493;0.0240058;0.00485599;0.462428
0.035429;0.0244636;0.00523683;0.462492
0.035928;0.0249484;0.00577915;0.460741
0.036427;0.0255098;0.00584953;0.460932
0.036926;0.0259905;0.00619312;0.460582
0.037425;0.0265806;0.00626349;0.461028
0.037924;0.0270693;0.00623451;0.461823
0.038423;0.027533;0.00624693;0.461155
0.038922;0.0279957;0.00625521;0.46071
0.039421;0.0284735;0.00657398;0.460582
0.03992;0.0289234;0.00653258;0.460582
0.040419;0.0294013;0.00721564;0.462046
0.040918;0.0298669;0.00793597;0.460646
0.041417;0.0303405;0.00817608;0.461601
0.041916;0.030775;0.00780351;0.460582
0.042415;0.0313797;0.00822162;0.460582
0.042914;0.0320214;0.00836652;0.461983
0.043413;0.0324012;0.00829614;0.460582
0.043912;0.0328817;0.00830028;0.461187
0.044411;0.0334011;0.00833754;0.460773
0.04491;0.0338124;0.00887986;0.460582
0.045409;0.0342418;0.00926485;0.461219
0.045908;0.0348141;0.00969539;0.460582
0.046407;0.0353301;0.00984443;0.460582
0.046906;0.0356825;0.0103122;0.460582
0.047405;0.0362165;0.0103826;0.460582
0.047904;0.0367821;0.0109497;0.460582
0.048403;0.0372706;0.0110574;0.460582
0.048902;0.037768;0.0106558;0.460582
0.049401;0.03829;0.0111981;0.460582
0.0499;0.0387084;0.0114341;0.460582
0.050399;0.0392028;0.0110988;0.460582
0.050898;0.0397633;0.012262;0.460582
0.051397;0.0402452;0.0122165;0.460582
0.051896;0.0406307;0.0123117;0.460582
0.052395;0.0411695;0.012527;0.460582
0.052894;0.041684;0.0129244;0.460646
0.053393;0.0420748;0.0135206;0.46071
0.053892;0.0424978;0.0132722;0.460582
0.054391;0.0430813;0.0136613;0.460837
0.05489;0.0435669;0.0140918;0.46071
0.055389;0.0440195;0.0140753;0.460837
0.055888;0.0445516;0.0144727;0.460582
0.056387;0.0450275;0.0145182;0.460582
0.056886;0.0454569;0.0146631;0.460741
0.057385;0.0459076;0.0147542;0.46071
0.057884;0.0464049;0.0151724;0.460773
0.058383;0.0468375;0.0163853;0.461282
0.058882;0.0472884;0.0166751;0.460996
0.059381;0.0477728;0.0165716;0.460741
0.05988;0.0481853;0.0165964;0.460932
0.060379;0.047825;0.0166337;0.460932
0.060878;0.0474247;0.0166627;0.461633
0.061377;0.0469716;0.0164267;0.460773
0.061876;0.0464403;0.0161038;0.461919
0.062375;0.0459691;0.0156442;0.461569
0.062874;0.0456118;0.0150978;0.46176
0.063373;0.0450431;0.0150274;0.461155
0.063872;0.0446462;0.0146176;0.460678
0.064371;0.0441206;0.0145928;0.461633
0.06487;0.0435993;0.0143527;0.460614
0.065369;0.0431029;0.0141871;0.461092
0.065868;0.0427222;0.0139387;0.460678
0.066367;0.0421644;0.0132846;0.461123
0.066866;0.0416838;0.0135868;0.460678
0.067365;0.0412049;0.0128623;0.461314
0.067864;0.0407532;0.0125063;0.460646
0.068363;0.040166;0.0123945;0.461537
0.068862;0.0397632;0.0123945;0.462555
0.069361;0.0393214;0.0123034;0.462365
0.06986;0.0388534;0.0121089;0.461378
0.070359;0.0383265;0.0112023;0.460614
0.070858;0.03792;0.0108007;0.460773
0.071357;0.0373781;0.0105357;0.460932
0.071856;0.0367938;0.0103288;0.460932
0.072355;0.0362835;0.0103536;0.463891
0.072854;0.0358494;0.0102335;0.461569
0.073353;0.0352967;0.0099686;0.460996
0.073852;0.0348152;0.0101425;0.461123
0.074351;0.03437;0.00991066;0.462174
0.07485;0.0338213;0.00959191;0.464433
0.075349;0.0334099;0.00869771;0.462683
0.075848;0.0329469;0.00826302;0.461219
0.076347;0.0325068;0.00822576;0.4616
0.076846;0.0319513;0.00813883;0.461728
0.077345;0.0314597;0.0080229;0.461123
0.077844;0.0309496;0.00791112;0.461378
0.078343;0.030313;0.00759236;0.462237
0.078842;0.0298612;0.00729016;0.464274
0.079341;0.0293962;0.00648704;0.463574
0.07984;0.028959;0.00649117;0.467011
0.080339;0.0284339;0.00619726;0.465961
0.080838;0.0279909;0.00619726;0.463065
0.081337;0.0275498;0.00617242;0.46386
0.081836;0.0269478;0.00547284;0.461473
0.082335;0.0265095;0.00554731;0.462715
0.082834;0.0260704;0.00542314;0.465483
0.083333;0.0255405;0.00549765;0.463415
0.083832;0.0250233;0.00500088;0.464146
0.084331;0.0245496;0.00471936;0.461442
0.08483;0.0241223;0.00486012;0.46246
0.085329;0.0235588;0.00418947;0.460614
0.085828;0.0230998;0.00422259;0.460582
0.086327;0.0226519;0.00413151;0.460805
0.086826;0.0221929;0.00413151;0.460582
0.087325;0.0216818;0.00365544;0.461187
0.087824;0.0212535;0.00386657;0.460932
0.088323;0.0207806;0.00285647;0.462524
0.088822;0.0201679;0.00238039;0.461982
0.089321;0.0197287;0.00228517;0.461569
0.08982;0.0192491;0.00202022;0.46106
0.090319;0.0187053;0.00191258;0.460741
0.090818;0.0182888;0.001925;0.461505
0.091317;0.0178743;0.00173457;0.461824
0.091816;0.0173691;0.0014986;0.461601
0.092315;0.0169714;0.00145721;0.462587
0.092814;0.0165392;0.00139925;0.462619
0.093313;0.0160397;0.000310485;0.461187
0.093812;0.0155344;0.00041398;0.460646
0.094311;0.0150776;0.000376722;0.461792
0.09481;0.0145664;0.000372582;0.463287
0.095309;0.0140956;-5.38174e-05;0.460773
0.095808;0.0136565;-0.000149033;0.463351
0.096307;0.0131708;-0.000558873;0.462301
0.096806;0.0125807;-0.00125022;0.461187
0.097305;0.0121584;-0.00183807;0.460614
0.097804;0.0117755;-0.00168075;0.461696
0.098303;0.0111685;-0.00207818;0.460932
0.098802;0.0106632;-0.00206576;0.460582
0.099301;0.0102428;-0.00225619;0.460614
0.0998;0.0097228;-0.00217339;0.460582
0.100299;0.00918882;-0.00248388;0.461123
0.100798;0.00876347;-0.0032249;0.460614
0.101297;0.00825921;-0.00378791;0.461187
0.101796;0.00760099;-0.00403215;0.461346
0.102295;0.00720325;-0.00410667;0.461314
0.102794;0.0067996;-0.00421845;0.460614
0.103293;0.00627263;-0.00411495;0.460582
0.103792;0.00567555;-0.00443373;0.460773
0.104291;0.00524426;-0.00467384;0.460582
0.10479;0.00476369;-0.00537346;0.460582
0.105289;0.00419422;-0.00608549;0.460582
0.105788;0.00374915;-0.00591991;0.460582
0.106287;0.00331198;-0.00623451;0.460582
0.106786;0.00274549;-0.00632145;0.4609
0.107285;0.00222146;-0.00619726;0.460678
0.107784;0.00187902;-0.00619726;0.460582
0.108283;0.001354;-0.00620554;0.460614
0.108782;0.000885228;-0.00625107;0.460582
0.109281;0.000451989;-0.00632973;0.460741
0.10978;-4.73703e-05;-0.00638355;0.46071
0.110279;-0.000617784;-0.00702523;0.460646
0.110778;-0.00113787;-0.00799392;0.460582
0.111277;-0.00153361;-0.00810157;0.460582
0.111776;-0.00207343;-0.00828372;0.460582
0.112275;-0.00254517;-0.00832097;0.460582
0.112774;-0.00298631;-0.0085197;0.460582
0.113273;-0.0034304;-0.0095629;0.460582
0.113772;-0.00398993;-0.00942216;0.460582
0.114271;-0.00440541;-0.00972023;0.460582
0.11477;-0.00495513;-0.0103329;0.460582
0.115269;-0.00552456;-0.0103536;0.460582
0.115768;-0.00601009;-0.0103743;0.461059
0.116267;-0.00651539;-0.0105068;0.460869
0.116766;-0.00702367;-0.0106185;0.460582
0.117265;-0.00757134;-0.0115666;0.460741
0.117764;-0.0079641;-0.0110698;0.460582
0.118263;-0.0084852;-0.0121337;0.460582
0.118762;-0.00899145;-0.0124525;0.46071
0.119261;-0.00939213;-0.0123862;0.460614
0.11976;-0.00985302;-0.0125642;0.460646
0.120259;-0.010378;-0.0124069;0.461219
0.120758;-0.0109169;-0.0130734;0.460964
0.121257;-0.0113245;-0.0131148;0.461123
0.121756;-0.0119422;-0.0135288;0.46071
0.122255;-0.0124149;-0.0141871;0.461537
0.122754;-0.0129932;-0.0144562;0.46071
0.123253;-0.0134827;-0.0144603;0.460741
0.123752;-0.0140591;-0.0146756;0.46176
0.124251;-0.0144776;-0.0152551;0.461919
0.12475;-0.0148644;-0.0147542;0.461059
0.125249;-0.0153706;-0.0151682;0.461442
0.125748;-0.0158404;-0.0159796;0.461505
0.126247;-0.0162825;-0.0164184;0.463033
0.126746;-0.0167898;-0.016526;0.462205
0.127245;-0.0172665;-0.0165302;0.461792
0.127744;-0.0177154;-0.016526;0.46281
0.128243;-0.0181467;-0.0172464;0.461155
0.128742;-0.0186599;-0.0171926;0.461728
0.129241;-0.0191613;-0.0179791;0.460964
0.12974;-0.019558;-0.0177928;0.460996
0.130239;-0.0200634;-0.0185504;0.460582
0.130738;-0.0206257;-0.0185421;0.460996
0.131237;-0.0210689;-0.0187905;0.460773
0.131736;-0.0215248;-0.0186249;0.460582
0.132235;-0.0220271;-0.0186663;0.460582
0.132734;-0.0224654;-0.0189934;0.460582
0.133233;-0.0229784;-0.0187823;0.460582
0.133732;-0.023475;-0.0194984;0.460582
0.134231;-0.0239673;-0.0202022;0.460582
0.13473;-0.02436;-0.0205664;0.460614
0.135229;-0.0248922;-0.0205664;0.460582
0.135728;-0.0253983;-0.0207279;0.460582
0.136227;-0.0258406;-0.0206492;0.460741
0.136726;-0.0263013;-0.0207072;0.460582
0.137225;-0.0268699;-0.0209515;0.460582
0.137724;-0.0272893;-0.0223011;0.460582
0.138223;-0.0277254;-0.0223467;0.460582
0.138722;-0.0282288;-0.0226613;0.460582
0.139221;-0.0287497;-0.0227193;0.46141
0.13972;-0.02927;-0.0228435;0.460582
0.140219;-0.0297367;-0.0228642;0.460582
0.140718;-0.0302251;-0.0230049;0.460582
0.141217;-0.0306327;-0.0229056;0.460582
0.141716;-0.0311736;-0.0229428;0.460741
0.142215;-0.0317559;-0.0236631;0.460582
0.142714;-0.0322216;-0.0242012;0.460582
0.143213;-0.0327336;-0.0243088;0.460582
0.143712;-0.0332095;-0.0245903;0.461632
0.144211;-0.0336309;-0.0244537;0.460582
0.14471;-0.0340937;-0.024789;0.460582
0.145209;-0.0346069;-0.0248056;0.460582
0.145708;-0.0351259;-0.0250996;0.460582
0.146207;-0.0355611;-0.0252113;0.460582
0.146706;-0.0360882;-0.0257082;0.460582
0.147205;-0.036637;-0.0255426;0.460582
0.147704;-0.037093;-0.0263127;0.460964
0.148203;-0.0375024;-0.0258738;0.461251
0.148702;-0.0380246;-0.0267059;0.461028
0.149201;-0.0385821;-0.0268591;0.460805
0.1497;-0.0389857;-0.0269129;0.461919
0.150199;-0.0395187;-0.0271778;0.460678
0.150698;-0.0400052;-0.0277284;0.461664
0.151197;-0.0404149;-0.0281507;0.461696
0.151696;-0.0409041;-0.0282293;0.462428
0.152195;-0.0414291;-0.0285977;0.460582
0.152694;-0.0419012;-0.0287674;0.461951
0.153193;-0.0424031;-0.0288088;0.461219
0.153692;-0.0430231;-0.0289206;0.460646
0.154191;-0.0434869;-0.0291565;0.462205
0.15469;-0.0439417;-0.0299928;0.460582
0.155189;-0.0445132;-0.0305228;0.460582
0.155688;-0.0450097;-0.0299639;0.460678
0.156187;-0.0454343;-0.0302951;0.460901
0.156686;-0.045886;-0.0308623;0.460582
0.157185;-0.0463269;-0.0308043;0.461251
0.157684;-0.0467802;-0.0308582;0.46106
0.158183;-0.0472224;-0.0309865;0.460582
0.158682;-0.0477856;-0.0312762;0.460582
0.159181;-0.048286;-0.0312142;0.460582
0.15968;-0.0487944;-0.0318971;0.460582
0.160179;-0.0488242;-0.0322987;0.460837
0.160678;-0.0483462;-0.0317275;0.460582
0.161177;-0.0478646;-0.031446;0.460646
0.161676;-0.0473556;-0.0311272;0.460646
0.162175;-0.0468838;-0.0310072;0.46141
0.162674;-0.0463989;-0.030912;0.46106
0.163173;-0.0459;-0.0308085;0.460582
0.163672;-0.0454529;-0.0304937;0.460582
0.164171;-0.0449483;-0.0301336;0.460582
0.16467;-0.0443838;-0.0298066;0.460582
0.165169;-0.0438718;-0.029554;0.460582
0.165668;-0.0434908;-0.0291359;0.460582
0.166167;-0.0430191;-0.0289578;0.460582
0.166666;-0.0424734;-0.0289206;0.460582
0.167165;-0.041977;-0.0286267;0.460582
0.167664;-0.0414211;-0.0280968;0.460741
0.168163;-0.0409218;-0.0276746;0.460582
0.168662;-0.0404317;-0.0274469;0.460901
0.169161;-0.0399389;-0.0275463;0.460582
0.16966;-0.0394457;-0.0270661;0.460582
0.170159;-0.0390094;-0.0267515;0.460582
0.170658;-0.0385564;-0.0268384;0.460582
0.171157;-0.0380019;-0.0268716;0.460582
0.171656;-0.0374354;-0.0266977;0.460582
0.172155;-0.0369854;-0.0264368;0.460582
0.172654;-0.03655;-0.0261553;0.460582
0.173153;-0.0360211;-0.025555;0.460582
0.173652;-0.0355266;-0.0252859;0.461664
0.174151;-0.0351279;-0.0250416;0.46106
0.17465;-0.0346573;-0.024818;0.460614
0.175149;-0.0341539;-0.0246441;0.460614
0.175648;-0.0337247;-0.0246152;0.460582
0.176147;-0.0331304;-0.0237956;0.460741
0.176646;-0.0326026;-0.0241018;0.460678
0.177145;-0.0321152;-0.0233898;0.460614
0.177644;-0.0315189;-0.0228352;0.460582
0.178143;-0.0310089;-0.0228807;0.462841
0.178642;-0.0305626;-0.0227938;0.460582
0.179141;-0.0301739;-0.0229139;0.461537
0.17964;-0.0297457;-0.02274;0.460582
0.180139;-0.0292412;-0.0227151;0.460582
0.180638;-0.0288041;-0.0224088;0.461537
0.181137;-0.0282108;-0.0216759;0.461091
0.181636;-0.0277008;-0.0214151;0.460582
0.182135;-0.027246;-0.0216097;0.460837
0.182634;-0.0268036;-0.0210963;0.461855
0.183133;-0.0261938;-0.0213655;0.461664
0.183632;-0.0257684;-0.0211005;0.460678
0.184131;-0.025356;-0.0207486;0.460805
0.18463;-0.0248081;-0.0202849;0.460582
0.185129;-0.0242812;-0.0194819;0.460582
0.185628;-0.0239171;-0.0197924;0.460646
0.186127;-0.0234521;-0.0192252;0.460582
0.186626;-0.0229765;-0.0189437;0.460582
0.187125;-0.0225779;-0.0186415;0.460646
0.187624;-0.0220607;-0.0186001;0.460837
0.188123;-0.0215496;-0.0185339;0.461346
0.188622;-0.0210709;-0.0185546;0.460582
0.189121;-0.0205922;-0.0177804;0.460582
0.18962;-0.0200198;-0.0179212;0.460582
0.190119;-0.0195107;-0.0179874;0.461092
0.190618;-0.0191465;-0.0182192;0.46071
0.191117;-0.0186599;-0.0172961;0.46125
0.191616;-0.0180875;-0.0170146;0.46071
0.192115;-0.0176769;-0.0166544;0.460582
0.192614;-0.0173208;-0.016526;0.462937
0.193113;-0.0167898;-0.0165095;0.462587
0.193612;-0.0163161;-0.0164267;0.463701
0.194111;-0.0158818;-0.0163273;0.463032
0.19461;-0.0153311;-0.0149529;0.462364
0.195109;-0.0148349;-0.0146011;0.462777
0.195608;-0.0143631;-0.0144769;0.461282
0.196107;-0.0139496;-0.0146383;0.460582
0.196606;-0.013459;-0.0143444;0.460932
0.197105;-0.0129616;-0.0143527;0.461028
0.197604;-0.0125195;-0.0140504;0.460996
0.198103;-0.0119087;-0.0139884;0.460582
0.198602;-0.0114617;-0.0137317;0.460646
0.199101;-0.0109899;-0.0125932;0.460582
0.1996;-0.0104944;-0.0125477;0.460582
0.200099;-0.00996748;-0.012469;0.460582
0.200598;-0.00950566;-0.0119143;0.460837
0.201097;-0.00897366;-0.0118481;0.461092
0.201596;-0.00848325;-0.0116038;0.46071
0.202095;-0.0079256;-0.0110201;0.460741
0.202594;-0.00746875;-0.010544;0.460582
0.203093;-0.00694172;-0.0102915;0.460805
0.203592;-0.00637327;-0.0102998;0.460582
0.204091;-0.00599531;-0.010246;0.460582
0.20459;-0.00544066;-0.0103329;0.460582
0.205089;-0.0049048;-0.0102956;0.461187
0.205588;-0.0044893;-0.010188;0.460582
0.206087;-0.00404027;-0.00988584;0.460964
0.206586;-0.00350639;-0.00986927;0.460582
0.207085;-0.0029863;-0.0093104;0.460582
0.207584;-0.00254516;-0.00902477;0.460741
0.208083;-0.00201915;-0.00863975;0.460837
0.208582;-0.00149414;-0.00829614;0.460582
0.209081;-0.00103721;-0.00824646;0.460837
0.20958;-0.00054673;-0.00824646;0.46106
0.210079;-4.73703e-05;-0.00782419;0.461123
0.210578;0.000396724;-0.00791941;0.460869
0.211077;0.00083095;-0.00731086;0.460582
0.211576;0.00133722;-0.00668574;0.460582
0.212075;0.00171914;-0.00629247;0.460741
0.212574;0.00210501;-0.00619726;0.460582
0.213073;0.0027613;-0.0060979;0.460582
0.213572;0.00325178;-0.00619726;0.460582
0.214071;0.00377382;-0.00575431;0.46071
0.21457;0.00428303;-0.00567982;0.460614
0.215069;0.00483176;-0.0055556;0.460582
0.215568;0.00532619;-0.00563425;0.460582
0.216067;0.00572194;-0.00544798;0.460582
0.216566;0.00623905;-0.00465727;0.460582
0.217065;0.0067335;-0.00443372;0.460582
0.217564;0.00720131;-0.00396592;0.460582
0.218063;0.00769271;-0.00406113;0.460582
0.218562;0.00813091;-0.00349399;0.460582
0.219061;0.00861544;-0.00350641;0.460582
0.21956;0.0091474;-0.00352711;0.46071
0.220059;0.00967438;-0.00341534;0.460582
0.220558;0.0101944;-0.00270329;0.460582
0.221057;0.0106139;-0.00247561;0.460582
0.221556;0.0112604;-0.00207404;0.460582
0.222055;0.0117646;-0.00199538;0.460614
0.222554;0.0121514;-0.00206162;0.460582
0.223053;0.0126883;-0.00188774;0.461187
0.223552;0.0132498;-0.00130403;0.46106
0.224051;0.0135716;-0.00104737;0.460582
0.22455;0.0140128;-0.00021527;0.460901
0.225049;0.0144401;-0.00043054;0.460582
0.225548;0.014965;-0.000360163;0.460614
0.226047;0.0154555;-8.2796e-06;0.460582
0.226546;0.0160486;1.65592e-05;0.460582
0.227045;0.0165115;0.000302205;0.460582
0.227544;0.0169843;0.00062925;0.461378
0.228043;0.0174727;0.00127092;0.462174
0.228542;0.0179177;0.00154414;0.461219
0.229041;0.0182908;0.00169317;0.461123
0.22954;0.0187724;0.00180495;0.463097
0.230039;0.0192254;0.00203678;0.460678
0.230538;0.0197445;0.00237625;0.46176
0.231037;0.0201502;0.00291028;0.463033
0.231536;0.0207264;0.00347329;0.462779
0.232035;0.0212179;0.00372581;0.462714
0.232534;0.0216442;0.00406113;0.461346
0.233033;0.0221485;0.00409425;0.463478
0.233532;0.0227072;0.00405285;0.462206
0.234031;0.0230672;0.00399904;0.460901
0.23453;0.0235924;0.00410253;0.460964
0.235029;0.0240946;0.00413979;0.462587
0.235528;0.0245406;0.00516647;0.462205
0.236027;0.0250619;0.00517889;0.462237
0.236526;0.0255444;0.00561769;0.460964
0.237025;0.026027;0.00598613;0.462588
0.237524;0.0263595;0.00594887;0.460741
0.238023;0.0268936;0.00612688;0.462333
0.238522;0.02753;0.00633386;0.46211
0.239021;0.0279503;0.00661951;0.462364
0.23952;0.0284261;0.00745162;0.461314
0.240019;0.0289609;0.00755925;0.460582
0.240518;0.0295207;0.00799392;0.460614
0.241017;0.0299785;0.00814296;0.460614
0.241516;0.0304629;0.00826302;0.461028
0.242015;0.0309586;0.00820506;0.460932
0.242514;0.0314893;0.00826302;0.460582
0.243013;0.0319948;0.00871428;0.461346
0.243512;0.0324417;0.00849486;0.460869
0.244011;0.0329172;0.008706;0.461346
0.24451;0.0332777;0.00933521;0.460869
0.245009;0.03384;0.00950496;0.460646
0.245508;0.0343889;0.00943042;0.460582
0.246007;0.0348319;0.00999758;0.460582
0.246506;0.0354269;0.00974507;0.460582
0.247005;0.0359639;0.0100514;0.460614
0.247504;0.0364276;0.0100969;0.460582
0.248003;0.0368601;0.0102998;0.460582
0.248502;0.0373978;0.0105316;0.460582
0.249001;0.0378884;0.0108462;0.460582
0.2495;0.0382653;0.0111236;0.460773
0.249999;0.0388179;0.0119805;0.460582
0.250498;0.0393035;0.0121999;0.460582
0.250997;0.0397317;0.0123407;0.460582
0.251496;0.0402343;0.0120675;0.460646
0.251995;0.0407491;0.0124442;0.460582
0.252494;0.0412445;0.0124773;0.460614
