t;vds;corrente;vg
0.02495;0.183935;0.190818;0.34594
0.0499;0.180756;0.191449;0.348145
0.07485;0.178093;0.191449;0.341915
0.0998;0.175173;0.191449;0.335206
0.12475;0.17226;0.191449;0.329261
0.1497;0.169155;0.191481;0.326354
0.17465;0.166572;0.191449;0.318926
0.1996;0.163369;0.191449;0.312406
0.22455;0.160669;0.191449;0.306481
0.2495;0.157932;0.191449;0.301287
0.27445;0.154792;0.191449;0.294929
0.2994;0.152076;0.191449;0.288699
0.32435;0.14908;0.191449;0.284239
0.3493;0.146232;0.191449;0.278726
0.37425;0.143108;0.191449;0.272112
0.3992;0.140472;0.191449;0.267
0.42415;0.137093;0.191449;0.262974
0.4491;0.134456;0.191449;0.255273
0.47405;0.13166;0.191449;0.252845
0.499;0.128715;0.191449;0.247093
0.52395;0.125552;0.191449;0.239648
0.5489;0.122541;0.191449;0.234504
0.57385;0.119536;0.191449;0.229838
0.5988;0.116837;0.191449;0.223096
0.62375;0.113983;0.191425;0.215572
0.6487;0.1107;0.191449;0.210443
0.67365;0.108;0.191369;0.204372
0.6986;0.104972;0.191449;0.198844
0.72355;0.102452;0.191449;0.191927
0.7485;0.0990879;0.191425;0.187661
0.77345;0.0966323;0.191449;0.182884
0.7984;0.093696;0.191449;0.175599
0.82335;0.0908999;0.191449;0.170439
0.8483;0.0883;0.191449;0.165806
0.87325;0.0850921;0.191449;0.159447
0.8982;0.0819526;0.191449;0.153728
0.92315;0.0792277;0.191449;0.14967
0.9481;0.0765922;0.191449;0.143503
0.97305;0.0734637;0.191449;0.136519
0.998;0.0709038;0.191449;0.130736
1.02295;0.0683964;0.191449;0.125512
1.0479;0.0652718;0.191449;0.119441
1.07285;0.0626002;0.191449;0.112906
1.0978;0.0594481;0.191449;0.109359
1.12275;0.0568278;0.191449;0.10364
1.1477;0.0540642;0.191449;0.0977288
1.17265;0.0509478;0.191449;0.0932075
1.1976;0.0484722;0.191449;0.0876478
1.22255;0.04534;0.191449;0.0804744
1.2475;0.0425119;0.191449;0.0744674
1.27245;0.039528;0.191449;0.0695304
1.2974;0.036496;0.191449;0.063331
1.32235;0.0333839;0.191377;0.0566208
1.3473;0.0305759;0.191449;0.0501346
1.37225;0.027636;0.191449;0.0443991
1.3972;0.0248001;0.191361;0.0393985
1.42215;0.0220201;0.191449;0.0327679
1.4471;0.019;0.191449;0.0276395
1.47205;0.0161279;0.191449;0.0227986
1.497;0.01288;0.191401;0.0159446
1.52195;0.00965997;0.191449;0.00936227
1.5469;0.00692003;0.191449;0.00583145
1.57185;0.00455997;0.191449;0
1.5968;0.00136;0.191449;-0.00432966
1.62175;-0.001248;0.191449;-0.00845159
1.6467;-0.004364;0.191409;-0.0159446
1.67165;-0.00698397;0.191417;-0.0225909
1.6966;-0.00979201;0.191449;-0.0263293
1.72155;-0.012848;0.191449;-0.0321288
1.7465;-0.0154519;0.191449;-0.03967
1.77145;-0.018848;0.191449;-0.0445587
1.7964;-0.021648;0.191305;-0.0515723
1.82135;-0.02462;0.191337;-0.0568125
1.8463;-0.0276599;0.191377;-0.0636665
1.87125;-0.0307679;0.191449;-0.0697223
1.8962;-0.0334122;0.191313;-0.0731732
1.92115;-0.036428;0.191449;-0.0797235
1.9461;-0.0392282;0.191449;-0.0857625
1.97105;-0.042172;0.191449;-0.0912903
1.996;-0.0451677;0.191449;-0.0958915
2.02095;-0.0482519;0.191449;-0.103672
2.0459;-0.0511361;0.191449;-0.109168
2.07085;-0.054252;0.191401;-0.114216
2.0958;-0.0569842;0.191233;-0.119936
2.12075;-0.059672;0.191417;-0.127876
2.1457;-0.0628157;0.191369;-0.133755
2.17065;-0.06558;0.191313;-0.139093
2.1956;-0.068608;0.191066;-0.144302
2.22055;-0.070944;0.191449;-0.150836
2.2455;-0.0739239;0.191337;-0.154143
2.27045;-0.0768197;0.191449;-0.159447
2.2954;-0.0791923;0.191369;-0.165614
2.32035;-0.08252;0.191433;-0.171286
2.3453;-0.0851598;0.191449;-0.176318
2.37025;-0.087964;0.191449;-0.182868
2.3952;-0.0909675;0.191449;-0.187933
2.42015;-0.0938443;0.191449;-0.194355
2.4451;-0.096616;0.191449;-0.200298
2.47005;-0.0993076;0.191425;-0.20736
2.495;-0.102444;0.191449;-0.213878
2.51995;-0.105136;0.191145;-0.219534
2.5449;-0.10806;0.191449;-0.22471
2.56985;-0.111024;0.191449;-0.231196
2.5948;-0.113884;0.191209;-0.237124
2.61975;-0.11688;0.191313;-0.243594
2.6447;-0.119904;0.191385;-0.247141
2.66965;-0.122632;0.191449;-0.254027
2.6946;-0.125312;0.191329;-0.257222
2.71955;-0.128476;0.191345;-0.263053
2.7445;-0.131284;0.191449;-0.268853
2.76945;-0.134493;0.191409;-0.274732
2.7944;-0.13704;0.191409;-0.279541
2.81935;-0.140171;0.191329;-0.286926
2.8443;-0.142736;0.191257;-0.293395
2.86925;-0.14592;0.191385;-0.299115
2.8942;-0.148749;0.191441;-0.305968
2.91915;-0.151328;0.191034;-0.311816
2.9441;-0.154711;0.191185;-0.318878
2.96905;-0.157268;0.191449;-0.322263
2.994;-0.160408;0.191449;-0.326864
3.01895;-0.163033;0.191449;-0.334072
3.0439;-0.166004;0.191313;-0.338336
3.06885;-0.168871;0.191345;-0.343289
3.0938;-0.172237;0.191329;-0.350368
3.11875;-0.175244;0.191449;-0.353289
3.1437;-0.178085;0.191449;-0.358801
3.16865;-0.180936;0.191449;-0.365497
3.1936;-0.184051;0.191449;-0.370272
3.21855;-0.186661;0.191449;-0.37532
3.2435;-0.189332;0.191449;-0.382527
3.26845;-0.191777;0.191449;-0.388744
3.2934;-0.19006;0.191449;-0.382991
3.31835;-0.186847;0.191449;-0.376183
3.3433;-0.184379;0.191417;-0.371983
3.36825;-0.181372;0.191449;-0.366519
3.3932;-0.178441;0.191449;-0.35928
3.41815;-0.175624;0.191449;-0.355256
3.4431;-0.172635;0.191449;-0.350751
3.46805;-0.169391;0.191449;-0.343688
3.493;-0.166508;0.191449;-0.338402
3.51795;-0.163425;0.191449;-0.334647
3.5429;-0.160681;0.191449;-0.327951
3.56785;-0.157888;0.191449;-0.324645
3.5928;-0.154847;0.191449;-0.318894
3.61775;-0.152028;0.191449;-0.313237
3.6427;-0.149;0.191449;-0.306145
3.66765;-0.146352;0.191449;-0.299945
3.6926;-0.143159;0.191305;-0.293492
3.71755;-0.140568;0.191449;-0.287581
3.7425;-0.137705;0.191449;-0.28018
3.76745;-0.134684;0.191449;-0.275387
3.7924;-0.131816;0.191449;-0.270099
3.81735;-0.128819;0.191449;-0.263085
3.8423;-0.1258;0.191449;-0.257733
3.86725;-0.122929;0.191449;-0.254682
3.8922;-0.120356;0.191449;-0.247876
3.91715;-0.117272;0.191449;-0.242285
3.9421;-0.114563;0.191449;-0.238131
3.96705;-0.111352;0.191449;-0.231196
3.992;-0.108629;0.191449;-0.225285
4.01695;-0.105576;0.191449;-0.221163
4.0419;-0.102688;0.191449;-0.215188
4.06685;-0.0998478;0.191449;-0.208174
4.0918;-0.0969841;0.191449;-0.202056
4.11675;-0.0942123;0.191449;-0.194978
4.1417;-0.0912957;0.191449;-0.189019
4.16665;-0.0885242;0.191449;-0.183491
4.1916;-0.085628;0.191337;-0.178603
4.21655;-0.0827243;0.191449;-0.172708
4.2415;-0.0797359;0.191449;-0.166141
4.26645;-0.0770559;0.191449;-0.159447
4.2914;-0.0745359;0.191449;-0.155517
4.31635;-0.0712839;0.191449;-0.151315
4.3413;-0.0688803;0.191449;-0.143822
4.36625;-0.0659839;0.191449;-0.140962
4.3912;-0.0630801;0.191449;-0.135177
4.41615;-0.0602999;0.191449;-0.128515
4.4411;-0.0573119;0.191449;-0.121054
4.46605;-0.0548843;0.191449;-0.115079
4.491;-0.0516759;0.191449;-0.110685
4.51595;-0.0487922;0.191449;-0.103672
4.5409;-0.045664;0.191449;-0.0980323
4.56585;-0.0427039;0.191449;-0.0938945
4.5908;-0.039784;0.191449;-0.0871046
4.61575;-0.036956;0.191329;-0.0804265
4.6407;-0.033972;0.191449;-0.0757455
4.66565;-0.0311199;0.191409;-0.0702814
4.6906;-0.0282519;0.191449;-0.0637783
4.71555;-0.0250321;0.191353;-0.059257
4.7405;-0.0221521;0.191449;-0.0526428
4.76545;-0.019216;0.191449;-0.0459487
4.7904;-0.0159799;0.191449;-0.0399097
4.81535;-0.01318;0.191449;-0.0343336
4.8403;-0.0105801;0.191449;-0.0281028
4.86525;-0.00736;0.191449;-0.0231821
4.8902;-0.00493198;0.191449;-0.0159765
4.91515;-0.00175999;0.191449;-0.00984159
4.9401;0.001168;0.191449;-0.00581547
4.96505;0.00373599;0.191449;0
4.99;0.00667598;0.191449;0.00490481
5.01495;0.00926803;0.191449;0.008851
5.0399;0.012572;0.191449;0.0159286
5.06485;0.0154199;0.191449;0.021824
5.0898;0.0185681;0.191449;0.0265051
5.11475;0.021432;0.191449;0.0321288
5.1397;0.0246241;0.191449;0.0395103
5.16465;0.0272039;0.191449;0.0433285
5.1896;0.0299839;0.191409;0.0491919
5.21455;0.0330322;0.191449;0.0558699
5.2395;0.0358921;0.191441;0.0627558
5.26445;0.0390162;0.191449;0.069243
5.2894;0.042048;0.191449;0.0735247
5.31435;0.0449477;0.191449;0.0797235
5.3393;0.047904;0.191449;0.0859063
5.36425;0.0506561;0.191449;0.0929199
5.3892;0.0533283;0.191449;0.0966424
5.41415;0.0565481;0.191449;0.10364
5.4391;0.0589918;0.191449;0.108561
5.46405;0.061996;0.191425;0.11166
5.489;0.064836;0.191449;0.11869
5.51395;0.0677323;0.191449;0.125
5.5389;0.0705879;0.191449;0.130033
5.56385;0.0730318;0.191449;0.135641
5.5888;0.076152;0.191449;0.142912
5.61375;0.0789043;0.191449;0.148296
5.6387;0.0813203;0.191449;0.153104
5.66365;0.0846956;0.191449;0.159447
5.6886;0.087576;0.191449;0.164352
5.71355;0.0906717;0.191401;0.169241
5.7385;0.0931085;0.191449;0.175391
5.76345;0.0961642;0.191449;0.182197
5.7884;0.0988994;0.191449;0.186175
5.81335;0.101704;0.191449;0.191336
5.8383;0.104712;0.191449;0.19771
5.86325;0.107449;0.191449;0.203877
5.8882;0.11058;0.191449;0.209053
5.91315;0.113256;0.191449;0.215731
5.9381;0.116252;0.191449;0.222505
5.96305;0.11914;0.191449;0.228912
5.988;0.122212;0.191449;0.232762
6.01295;0.125068;0.191449;0.239345
6.0379;0.128332;0.191449;0.246918
6.06285;0.131052;0.191449;0.251966
6.0878;0.134008;0.191409;0.255273
6.11275;0.13674;0.191449;0.262031
6.1377;0.139647;0.191449;0.265354
6.16265;0.142736;0.191449;0.271058
6.1876;0.145504;0.191449;0.278502
6.21255;0.148725;0.191449;0.283778
6.2375;0.151584;0.191449;0.288235
6.26245;0.154575;0.191449;0.294689
6.2874;0.157237;0.191449;0.299707
6.31235;0.160324;0.191449;0.304882
6.3373;0.162833;0.191441;0.311097
6.36225;0.165868;0.191449;0.318351
6.3872;0.168803;0.191449;0.324852
6.41215;0.171633;0.191449;0.328304
6.4371;0.174696;0.191449;0.334839
6.46205;0.177557;0.191449;0.342154
6.487;0.180368;0.191449;0.348387
6.51195;0.183115;0.191449;0.350975
6.5369;0.185893;0.191449;0.358513
6.56185;0.188684;0.191449;0.363995
6.5868;0.191265;0.191449;0.368802
6.61175;0.194516;0.191449;0.374921
6.6367;0.197208;0.191449;0.381537
6.66165;0.200065;0.191449;0.388649
6.6866;0.202888;0.191449;0.393807
6.71155;0.206124;0.191449;0.398935
6.7365;0.208832;0.191449;0.4056
6.76145;0.212183;0.191449;0.411253
6.7864;0.214985;0.191449;0.416303
6.81135;0.2179;0.191449;0.422535
6.8363;0.220608;0.191449;0.427804
6.86125;0.223723;0.191449;0.431224
6.8862;0.226519;0.191449;0.438431
6.91115;0.229169;0.191449;0.443668
6.9361;0.232532;0.191449;0.446768
6.96105;0.235072;0.191449;0.454312
6.986;0.238339;0.191449;0.460539
7.01095;0.240983;0.191449;0.466582
7.0359;0.243925;0.191449;0.471136
7.06085;0.246568;0.191449;0.478083
7.0858;0.249208;0.191449;0.485451
7.11075;0.252187;0.191449;0.490624
7.1357;0.254539;0.191449;0.494906
7.16065;0.255487;0.191449;0.502258
7.1856;0.255487;0.191449;0.50783
7.21055;0.255487;0.191449;0.510786
7.2355;0.255487;0.191449;0.518202
7.26045;0.255487;0.191449;0.52296
7.2854;0.255487;0.191449;0.527946
7.31035;0.255487;0.191449;0.534163
7.3353;0.255487;0.191449;0.541109
7.36025;0.255487;0.191449;0.547118
7.3852;0.255487;0.191449;0.552852
7.41015;0.255487;0.191449;0.558522
7.4351;0.255487;0.191449;0.56554
7.46005;0.255487;0.191449;0.572813
7.485;0.255487;0.191449;0.578035
7.50995;0.255487;0.191449;0.582444
7.5349;0.255487;0.191449;0.58957
7.55985;0.255487;0.191449;0.594664
7.5848;0.255487;0.191449;0.599554
7.60975;0.255487;0.191449;0.605899
7.6347;0.255487;0.191449;0.612144
7.65965;0.255487;0.191449;0.616615
7.6846;0.255487;0.191449;0.621841
7.70955;0.255487;0.191449;0.62708
7.7345;0.255487;0.191449;0.633009
7.75945;0.255487;0.191449;0.639898
7.7844;0.255487;0.191489;0.645615
7.80935;0.255487;0.191449;0.651668
7.8343;0.255487;0.191449;0.656573
7.85925;0.255487;0.191449;0.661701
7.8842;0.255487;0.191449;0.668575
7.90915;0.255487;0.191449;0.672921
7.9341;0.255487;0.191449;0.677999
7.95905;0.255487;0.191449;0.684931
7.984;0.255487;0.191449;0.689149
8.00895;0.255487;0.191449;0.693589
8.0339;0.255487;0.191449;0.699473
8.05885;0.255487;0.191449;0.704379
8.0838;0.255487;0.191449;0.710685
8.10875;0.255487;0.191449;0.717474
8.1337;0.255487;0.191449;0.724263
8.15865;0.255487;0.191449;0.729939
8.1836;0.255487;0.191449;0.736172
8.20855;0.255487;0.191449;0.741538
8.2335;0.255487;0.191449;0.747892
8.25845;0.255487;0.191449;0.754127
8.2834;0.255487;0.191449;0.753853
8.30835;0.255487;0.191449;0.749266
8.3333;0.255487;0.191449;0.741682
8.35825;0.255487;0.191449;0.735739
8.3832;0.255487;0.191449;0.730224
8.40815;0.255487;0.191449;0.723688
8.4331;0.255487;0.191449;0.716614
8.45805;0.255487;0.191449;0.7104
8.483;0.255487;0.191449;0.703787
8.50795;0.255487;0.191449;0.700526
8.5329;0.255487;0.191449;0.693589
8.55785;0.255487;0.191449;0.688589
8.5828;0.255487;0.191449;0.684391
8.60775;0.255487;0.191521;0.677761
8.6327;0.255487;0.191449;0.673463
8.65765;0.255487;0.191449;0.669038
8.6826;0.255487;0.191449;0.661733
8.70755;0.255487;0.191449;0.656605
8.7325;0.255487;0.191449;0.652278
8.75745;0.255487;0.191449;0.645663
8.7824;0.255487;0.191449;0.638475
8.80735;0.255487;0.191449;0.631984
8.8323;0.255487;0.191449;0.627494
8.85725;0.255487;0.191449;0.621841
8.8822;0.255487;0.191449;0.616107
8.90715;0.255487;0.191449;0.611202
8.9321;0.255487;0.191449;0.605899
8.95705;0.255487;0.191449;0.599553
8.982;0.255487;0.191449;0.593691
9.00695;0.255487;0.191449;0.589666
9.0319;0.255487;0.191449;0.582252
9.05685;0.255487;0.191449;0.578803
9.0818;0.255487;0.191449;0.5727
9.10675;0.255487;0.191449;0.566035
9.1317;0.255487;0.191449;0.558634
9.15665;0.255487;0.191449;0.552374
9.1816;0.255487;0.191449;0.54683
9.20655;0.255487;0.191449;0.540678
9.2315;0.255487;0.191449;0.534163
9.25645;0.255487;0.191449;0.527609
9.2814;0.255487;0.191449;0.52218
9.30635;0.255487;0.191449;0.518011
9.3313;0.255487;0.191457;0.510881
9.35625;0.255487;0.191449;0.508822
9.3812;0.255487;0.191449;0.502258
9.40615;0.254515;0.191449;0.495656
9.4311;0.252091;0.191449;0.490707
9.45605;0.249052;0.191449;0.486154
9.481;0.246545;0.191449;0.478482
9.50595;0.243805;0.191449;0.471296
9.5309;0.240931;0.191449;0.465333
9.55585;0.238107;0.191449;0.460238
9.5808;0.234916;0.191449;0.454248
9.60575;0.232361;0.191449;0.447039
9.6307;0.229035;0.191449;0.442889
9.65565;0.226431;0.191449;0.438479
9.6806;0.223556;0.191449;0.431527
9.70555;0.220777;0.191449;0.427743
9.7305;0.217897;0.191449;0.422407
9.75545;0.214839;0.191449;0.415981
9.7804;0.212156;0.191449;0.411479
9.80535;0.208856;0.191449;0.406526
9.8303;0.206105;0.191449;0.399015
9.85525;0.202761;0.191449;0.394368
9.8802;0.200151;0.191449;0.388503
9.90515;0.197148;0.191449;0.380976
9.9301;0.194392;0.191449;0.374697
9.95505;0.191413;0.191449;0.367973
9.98;0.188621;0.191449;0.364217
10.0049;0.185856;0.191449;0.358577
10.0299;0.182983;0.191449;0.351582
10.0548;0.180276;0.191449;0.34642
10.0798;0.177425;0.191449;0.341181
10.1047;0.174553;0.191449;0.334839
10.1297;0.171516;0.191449;0.328047
10.1546;0.168663;0.191449;0.323942
10.1796;0.165976;0.191449;0.318526
10.2045;0.162768;0.191449;0.31156
10.2295;0.160188;0.191449;0.305314
10.2544;0.157096;0.191449;0.299162
10.2794;0.154448;0.191449;0.294977
10.3043;0.151469;0.191449;0.287964
10.3293;0.148716;0.191449;0.284255
10.3542;0.145472;0.191449;0.278518
10.3792;0.142863;0.191449;0.271553
10.4042;0.139524;0.191449;0.265737
10.4291;0.136597;0.191449;0.262175
10.4541;0.133832;0.191449;0.255145
10.479;0.13096;0.191449;0.251742
10.504;0.128119;0.191449;0.24639
10.5289;0.125028;0.191449;0.239153
10.5539;0.122121;0.191449;0.233641
10.5788;0.119092;0.191449;0.228704
10.6037;0.116372;0.191449;0.222601
10.6287;0.11334;0.191449;0.215396
10.6536;0.110452;0.191449;0.209884
10.6786;0.107236;0.191449;0.203653
10.7035;0.104568;0.191449;0.198413
10.7285;0.1017;0.191449;0.191336
10.7534;0.0987199;0.191449;0.185872
10.7784;0.0960445;0.191449;0.182357
10.8033;0.0931156;0.191449;0.175599
10.8283;0.0904441;0.191449;0.169369
10.8532;0.0875876;0.191449;0.165646
10.8782;0.0847239;0.191449;0.159447
10.9031;0.0812645;0.191449;0.152945
10.9281;0.0787875;0.191449;0.148024
10.953;0.0758843;0.191449;0.142624
10.978;0.0730079;0.191449;0.135848
11.0029;0.0704678;0.191449;0.130321
11.0279;0.0676603;0.191449;0.124377
11.0528;0.0649356;0.191449;0.119281
11.0778;0.0618921;0.191449;0.111612
11.1027;0.0589803;0.191449;0.107362
11.1277;0.0564639;0.191449;0.103416
11.1526;0.053284;0.191449;0.0962749
11.1776;0.0505598;0.191449;0.0925844
11.2025;0.047784;0.191449;0.0861141
11.2275;0.044928;0.191449;0.0796117
11.2524;0.041868;0.191449;0.0729177
11.2774;0.039;0.191449;0.0688432
11.3024;0.0358081;0.191449;0.0620848
11.3273;0.0328998;0.191449;0.0555983
11.3523;0.03004;0.191449;0.0482333
11.3772;0.027068;0.191449;0.0428654
11.4022;0.0245921;0.191449;0.039047
11.4271;0.0213401;0.191449;0.032001
11.452;0.018496;0.191449;0.0278472
11.477;0.015236;0.191449;0.0217602
11.5019;0.0123041;0.191449;0.0158647
11.5269;0.00909595;0.191449;0.0081001
11.5518;0.00658803;0.191449;0.00317935
11.5768;0.00375998;0.191449;-1.59766e-05
11.6017;0.00114;0.191449;-0.00659831
11.6267;-0.00192799;0.191449;-0.0100972
11.6516;-0.00490402;0.191449;-0.0159446
11.6766;-0.00751996;0.191449;-0.0227187
11.7015;-0.010752;0.191449;-0.0269844
11.7265;-0.013264;0.191449;-0.0333431
11.7514;-0.01632;0.191449;-0.0398618
11.7764;-0.019136;0.191449;-0.0462203
11.8013;-0.022432;0.191449;-0.0512847
11.8263;-0.025084;0.191449;-0.0581226
11.8512;-0.0284519;0.191449;-0.0638582
11.8762;-0.0311598;0.191449;-0.0702815
11.9011;-0.0340681;0.191449;-0.0743395
11.9261;-0.036828;0.191449;-0.0799791
11.951;-0.03992;0.191449;-0.0866093
11.976;-0.042784;0.191449;-0.0929838
12.0009;-0.0459639;0.191449;-0.0970098
12.0259;-0.0489478;0.191449;-0.10364
12.0508;-0.0518722;0.191449;-0.11043
12.0758;-0.0549038;0.191449;-0.115175
12.1007;-0.0575121;0.191449;-0.120655
12.1257;-0.0605561;0.191449;-0.12794
12.1507;-0.0630996;0.191449;-0.134762
12.1756;-0.0661841;0.191449;-0.140339
12.2006;-0.0689358;0.191449;-0.14419
12.2255;-0.0714881;0.191449;-0.151315
12.2505;-0.074572;0.191449;-0.155069
12.2754;-0.0770836;0.191409;-0.160038
12.3003;-0.0801522;0.191417;-0.167403
12.3253;-0.0829398;0.191449;-0.174449
12.3502;-0.0858923;0.191449;-0.178667
12.3752;-0.088656;0.191449;-0.183364
12.4001;-0.0914755;0.191449;-0.190249
12.4251;-0.0944842;0.191449;-0.196416
12.45;-0.0970517;0.191449;-0.20188
12.475;-0.100016;0.191449;-0.208718
12.4999;-0.102748;0.191449;-0.215108
12.5249;-0.105592;0.191449;-0.220844
12.5498;-0.108696;0.191449;-0.226292
12.5748;-0.11154;0.191449;-0.231883
12.5997;-0.114573;0.191393;-0.239009
12.6247;-0.117504;0.191449;-0.243946
12.6496;-0.120453;0.191449;-0.248323
12.6746;-0.122952;0.191449;-0.25449
12.6995;-0.125903;0.19093;-0.258069
12.7245;-0.128944;0.191449;-0.263181
12.7494;-0.132156;0.191249;-0.27101
12.7744;-0.134885;0.191401;-0.275898
12.7993;-0.137652;0.191441;-0.280692
12.8243;-0.140675;0.191409;-0.287772
12.8492;-0.143201;0.191449;-0.293954
12.8742;-0.146576;0.191449;-0.298796
12.8991;-0.149197;0.191441;-0.305728
12.9241;-0.152112;0.191449;-0.312535
12.949;-0.155155;0.191313;-0.318894
12.974;-0.158157;0.191449;-0.323541
12.999;-0.16074;0.191449;-0.327808
13.0239;-0.163689;0.191449;-0.334839
13.0489;-0.166624;0.191449;-0.33947
13.0738;-0.169627;0.191449;-0.343257
13.0988;-0.172753;0.191449;-0.350751
13.1237;-0.175948;0.191449;-0.354471
13.1486;-0.178676;0.191425;-0.359281
13.1736;-0.181455;0.191449;-0.366392
13.1985;-0.184507;0.191449;-0.370495
13.2235;-0.187029;0.191449;-0.375784
13.2484;-0.190196;0.191449;-0.382799
13.2734;-0.191701;0.191449;-0.387928
13.2983;-0.189077;0.191449;-0.38192
13.3233;-0.186439;0.191449;-0.374904
13.3482;-0.183711;0.191449;-0.369683
13.3732;-0.1807;0.191449;-0.365944
13.3981;-0.177853;0.191385;-0.358753
13.4231;-0.175041;0.191273;-0.35278
13.448;-0.172016;0.191377;-0.349248
13.473;-0.168847;0.191449;-0.342809
13.4979;-0.165804;0.191449;-0.337251
13.5229;-0.162917;0.191449;-0.333848
13.5478;-0.160108;0.191449;-0.32696
13.5728;-0.157172;0.191449;-0.32177
13.5977;-0.15458;0.191449;-0.318542
13.6227;-0.151329;0.191449;-0.311336
13.6476;-0.148696;0.191449;-0.304659
13.6726;-0.145692;0.191449;-0.298923
13.6975;-0.142699;0.191449;-0.293124
13.7225;-0.140104;0.191449;-0.286286
13.7474;-0.137069;0.191449;-0.279093
13.7724;-0.134296;0.191449;-0.273854
13.7973;-0.131224;0.191449;-0.26831
13.8223;-0.128391;0.191449;-0.263069
13.8472;-0.125152;0.191449;-0.256439
13.8722;-0.122501;0.191449;-0.253995
13.8972;-0.11972;0.191449;-0.247141
13.9221;-0.116696;0.191449;-0.241933
13.9471;-0.113832;0.191449;-0.236853
13.972;-0.11082;0.191449;-0.23118
