t;vds;corrente;vg
0.00998;2.17571e-05;0.00443765;0.383184
0.01996;0.000985499;0.00566062;0.391234
0.02994;0.00173019;0.00611785;0.391234
0.03992;0.00299754;0.00431325;0.391375
0.0499;0.00390887;0.00616641;0.391517
0.05988;0.0047297;0.0101236;0.391689
0.06986;0.005778;0.0138137;0.391407
0.07984;0.00675855;0.0148778;0.391328
0.08982;0.00765752;0.019183;0.391313
0.0998;0.00871767;0.0156304;0.391344
0.10978;0.00976251;0.0246292;0.392034
0.11976;0.0106392;0.0256974;0.391893
0.12974;0.0116643;0.0245038;0.391391
0.13972;0.0126903;0.0282303;0.391234
0.1497;0.0135512;0.0306095;0.391234
0.15968;0.0145555;0.0293309;0.391297
0.16966;0.015536;0.0330736;0.391658
0.17964;0.0164276;0.032665;0.391548
0.18962;0.017413;0.0371279;0.391344
0.1996;0.0185138;0.0363631;0.391234
0.20958;0.0195096;0.0408585;0.391313
0.21956;0.0203488;0.0435937;0.391297
0.22954;0.0213041;0.0420278;0.391407
0.23952;0.0223786;0.0467093;0.391234
0.2495;0.0233102;0.0497965;0.391313
0.25948;0.0239402;0.0456249;0.391328
0.26946;0.0231915;0.0479353;0.391642
0.27944;0.0222703;0.0457301;0.391548
0.28942;0.0212487;0.0446134;0.391391
0.2994;0.0201302;0.0432538;0.391564
0.30938;0.0191531;0.0409475;0.391328
0.31936;0.0182003;0.0353031;0.39183
0.32934;0.0172825;0.0349874;0.39205
0.33932;0.0162921;0.0327054;0.391438
0.3493;0.0153476;0.0348904;0.391313
0.35928;0.0143082;0.0322967;0.391595
0.36926;0.0134102;0.0304759;0.392065
0.37924;0.0123704;0.0278378;0.391485
0.38922;0.0114141;0.0250621;0.391281
0.3992;0.0104162;0.0264662;0.391344
0.40918;0.00951378;0.0173824;0.391548
0.41916;0.00858219;0.0180743;0.391297
0.42914;0.00762291;0.0149304;0.39136
0.43912;0.00672542;0.0165611;0.391281
0.4491;0.00549367;0.0173703;0.391281
0.45908;0.00433956;0.013664;0.392081
0.46906;0.00356026;0.00977964;0.391422
0.47904;0.00271816;0.00796291;0.391469
0.48902;0.00169013;0.00504561;0.39125
0.499;0.000739742;0.0042566;0.391234
0.50898;-0.000391628;0.00527624;0.391281
0.51896;-0.00131927;0.00553924;0.391642
0.52894;-0.00217275;0.000461267;0.391234
0.53892;-0.00319632;-0.00106415;0.391234
0.5489;-0.00429011;-0.00514676;0.391673
0.55888;-0.005196;-0.0100588;0.391234
0.56886;-0.00618842;-0.00832302;0.391234
0.57884;-0.00704041;-0.0123935;0.391234
0.58882;-0.00816436;-0.00496064;0.391736
0.5988;-0.00918001;-0.00920913;0.391517
0.60878;-0.0103781;-0.00856175;0.391642
0.61876;-0.0110462;-0.0222541;0.39147
0.62874;-0.0117424;-0.0216107;0.391234
0.63872;-0.013076;-0.0151975;0.391391
0.6487;-0.0140194;-0.0238685;0.391234
0.65868;-0.0149491;-0.0211818;0.391234
0.66866;-0.015897;-0.0171033;0.392175
0.67864;-0.0168909;-0.0277569;0.391861
0.68862;-0.0178383;-0.0280199;0.391422
0.6986;-0.0192075;-0.0182928;0.391281
0.70858;-0.0199814;-0.0449452;0.391234
0.71856;-0.0204319;-0.0488659;0.391234
0.72854;-0.02176;-0.0204009;0.391485
0.73852;-0.0229695;-0.0287644;0.392128
0.7485;-0.0235411;-0.053689;0.39125
0.75848;-0.0242284;-0.0323574;0.391422
0.76846;-0.0238235;-0.0239737;0.391658
0.77844;-0.022973;-0.0438365;0.391344
0.78842;-0.021852;-0.0398065;0.391234
0.7984;-0.0209288;-0.0274615;0.391281
0.80838;-0.0198953;-0.0345505;0.391595
0.81836;-0.0189593;-0.0327054;0.391375
0.82834;-0.0178353;-0.0271823;0.391234
0.83832;-0.016922;-0.0242933;0.391328
0.8483;-0.015985;-0.0228246;0.391485
0.85828;-0.0150257;-0.0206639;0.39183
0.86826;-0.0139413;-0.0267737;0.39183
0.87824;-0.012758;-0.027417;0.391517
0.88822;-0.0120757;-0.016209;0.392081
0.8982;-0.0111094;-0.0122923;0.392128
0.90818;-0.00998995;-0.0166137;0.392238
0.91816;-0.00881162;-0.0144975;0.392238
0.92814;-0.00806002;-0.00691495;0.391877
0.93812;-0.007211;-0.010864;0.392551
0.9481;-0.0063333;-0.00636871;0.391705
0.95808;-0.00514358;-0.00310748;0.39125
0.96806;-0.00408144;-0.00693113;0.391501
0.97804;-0.00298765;-0.0065346;0.391548
0.98802;-0.00211143;0.0030913;0.391375
0.998;-0.00141372;0.00434157;0.391705
1.00798;-0.000281854;-4.04621e-05;0.391987
1.01796;0.00100528;-0.00159825;0.391924
1.02794;0.00185232;0.0123692;0.391799
1.03792;0.00253273;0.0137894;0.391407
1.0479;0.00338175;0.0131704;0.391689
1.05788;0.0045062;0.0130935;0.391422
1.06786;0.00582992;0.0134779;0.391391
1.07784;0.00675806;0.0189645;0.392348
1.08782;0.00742066;0.0199437;0.391266
1.0978;0.00840517;0.02032;0.391266
1.10778;0.00929819;0.0230188;0.391344
1.11776;0.0105378;0.0281939;0.391234
1.12774;0.0115738;0.0266563;0.391422
1.13772;0.0123625;0.0295696;0.391391
1.1477;0.0131912;0.0272956;0.391391
1.15768;0.0141856;0.0340771;0.391313
1.16766;0.0153995;0.0369215;0.391266
1.17764;0.0163489;0.038625;0.39136
1.18762;0.0171965;0.0450625;0.39147
1.1976;0.0180588;0.0427562;0.391689
1.20758;0.0191324;0.0388395;0.391626
1.21756;0.0201045;0.0500232;0.392003
1.22754;0.0211894;0.051063;0.391971
1.23752;0.0221245;0.0488295;0.391783
1.2475;0.0231555;0.0522648;0.391501
1.25748;0.0239278;0.0585363;0.391736
1.26746;0.0233166;0.0553196;0.391297
1.27744;0.0223099;0.0537902;0.392535
1.28742;0.0213526;0.0491815;0.391783
1.2974;0.0203715;0.0462844;0.393068
1.30738;0.0194038;0.0442007;0.391391
1.31736;0.0183837;0.0446174;0.391344
1.32734;0.0174403;0.0412995;0.391344
1.33732;0.0163643;0.0434116;0.39194
1.3473;0.0153837;0.0408666;0.392018
1.35728;0.0143671;0.0360719;0.392426
1.36726;0.0135363;0.0314389;0.391375
1.37724;0.0125642;0.0302939;0.39216
1.38722;0.0115609;0.0259482;0.391548
1.3972;0.0106798;0.0252806;0.391266
1.40718;0.00959734;0.0250581;0.391642
1.41716;0.00869592;0.0242246;0.392206
1.42714;0.00774949;0.0250662;0.391689
1.43712;0.00664828;0.0178558;0.391501
1.4471;0.00567564;0.0162697;0.391861
1.45708;0.00475591;0.0156264;0.392096
1.46706;0.0037714;0.0144247;0.392394
1.47704;0.0028304;0.0139432;0.392489
1.48702;0.00185925;0.00909179;0.392724
1.497;0.000781773;0.0072791;0.391893
1.50698;-0.000134993;0.00413117;0.391956
1.51696;-0.000997366;0.00315604;0.392285
1.52694;-0.00200363;0.000946811;0.392238
1.53692;-0.00295254;-0.00651033;0.392441
1.5469;-0.00388562;-0.00375892;0.391407
1.55688;-0.00498584;-0.00356066;0.392081
1.56686;-0.00607864;-0.00384794;0.392379
1.57684;-0.00700629;-0.00901896;0.392316
1.58682;-0.00797448;-0.0124542;0.39183
1.5968;-0.00900645;-0.0139594;0.391767
1.60678;-0.00993507;-0.0148698;0.391642
1.61676;-0.010833;-0.018394;0.391877
1.62674;-0.0117676;-0.018483;0.391344
1.63672;-0.0127081;-0.0182766;0.392191
1.6467;-0.0137094;-0.0222622;0.39241
1.65668;-0.0147073;-0.0285904;0.391783
1.66666;-0.0157378;-0.0290193;0.391861
1.67664;-0.0167134;-0.0261748;0.391877
1.68662;-0.0176395;-0.0289101;0.392159
1.6966;-0.0186339;-0.0307308;0.392645
1.70658;-0.0196139;-0.0361811;0.391422
1.71656;-0.0206341;-0.0391308;0.391375
1.72654;-0.0215845;-0.0386128;0.391297
1.73652;-0.0226115;-0.0369944;0.391595
1.7465;-0.0236068;-0.0393128;0.39125
1.75648;-0.0244;-0.0421128;0.391234
1.76646;-0.0238017;-0.0437555;0.391328
1.77644;-0.0228459;-0.0436868;0.391281
1.78642;-0.0219454;-0.0379816;0.39147
1.7964;-0.0209338;-0.0348742;0.391595
1.80638;-0.0199384;-0.0376053;0.391234
1.81636;-0.0191022;-0.031617;0.39136
1.82634;-0.0180623;-0.0302979;0.392018
1.83632;-0.0170477;-0.0306985;0.392065
1.8463;-0.0159716;-0.0281453;0.391517
1.85628;-0.0151241;-0.0245604;0.391234
1.86626;-0.0140556;-0.0218535;0.391642
1.87624;-0.0131393;-0.0200934;0.391642
1.88622;-0.0123066;-0.0164599;0.392049
1.8962;-0.0113582;-0.014712;0.391501
1.90618;-0.010211;-0.0178599;0.391517
1.91616;-0.00923736;-0.0163911;0.391234
1.92614;-0.00827116;-0.0142911;0.391454
1.93612;-0.0072832;-0.0122721;0.391234
1.9461;-0.00631501;-0.00765945;0.391234
1.95608;-0.00541011;-0.0045277;0.391657
1.96606;-0.00441422;-0.00398551;0.391438
1.97604;-0.00345642;-0.00354447;0.391281
1.98602;-0.00244867;-0.00276356;0.391234
1.996;-0.00145278;0.00166299;0.391344
2.00598;-0.000310039;0.00156993;0.391563
2.01596;0.000652219;0.00716581;0.391752
2.02594;0.00150965;0.0102571;0.391344
2.03592;0.00230329;0.0134293;0.391704
2.0459;0.00325022;0.0145056;0.391281
2.05588;0.00439889;0.0100629;0.391234
2.06586;0.00540219;0.0124461;0.391234
2.07584;0.00641192;0.020761;0.391407
2.08582;0.00719518;0.0198628;0.391501
2.0958;0.00826028;0.0227517;0.391344
2.10578;0.00920918;0.0268627;0.391501
2.11576;0.0102431;0.0285014;0.391328
2.12574;0.0112271;0.0294037;0.392348
2.13572;0.0119476;0.0292499;0.391485
2.1457;0.0132411;0.0262193;0.391391
2.15568;0.0141881;0.0335429;0.391234
2.16566;0.0151736;0.0380383;0.391705
2.17564;0.0159632;0.0452122;0.391516
2.18562;0.0168568;0.0488012;0.391438
2.1956;0.0177711;0.0424527;0.392285
2.20558;0.0189489;0.0389972;0.391391
2.21556;0.0201045;0.0487041;0.391313
2.22554;0.0207908;0.0522486;0.391438
2.23552;0.0218614;0.051415;0.391438
2.2455;0.0228676;0.0627768;0.391407
2.25548;0.023813;0.0640797;0.391485
2.26546;0.0235302;0.0533451;0.391454
2.27544;0.0221952;0.067697;0.391266
2.28542;0.0210233;0.0633109;0.391642
2.2954;0.0205446;0.0279268;0.391266
2.30538;0.0199319;0.0466446;0.391234
2.31536;0.0183684;0.0680409;0.391877
2.32534;0.0175114;0.033806;0.39136
2.33532;0.0167045;0.0349794;0.391281
2.3453;0.0156171;0.0554248;0.39183
2.35528;0.0143048;0.0433793;0.391595
2.36526;0.0136016;0.0259563;0.391234
2.37524;0.012584;0.0374637;0.39125
2.38522;0.0118383;0.0305852;0.392269
2.3952;0.0108192;0.0235043;0.392254
2.40518;0.00996968;0.0249731;0.391516
2.41516;0.00889866;0.0295008;0.391422
2.42514;0.00782416;0.0263893;0.391328
2.43512;0.00674471;0.0274291;0.391407
2.4451;0.00582151;0.0162455;0.391234
2.45508;0.00507584;0.00859411;0.391234
2.46506;0.00405226;0.010601;0.391297
2.47504;0.0027592;0.0183697;0.39125
2.48502;0.00189633;0.0104473;0.391517
2.495;0.00120258;0.0028202;0.39125
2.50498;0.000222516;0.00762303;0.391517
2.51496;-0.000983026;0.00533289;0.392034
2.52494;-0.00193935;0.00195836;0.392347
2.53492;-0.00292979;-0.00156588;0.392442
2.5449;-0.00378327;-0.00342309;0.392489
2.55488;-0.00460015;-0.0107831;0.391642
2.56486;-0.00557625;-0.00780915;0.391501
2.57484;-0.00675658;-0.00119768;0.391673
2.58482;-0.00797695;-0.00772823;0.391893
2.5948;-0.00866773;-0.0206437;0.391485
2.60478;-0.00932736;-0.0189119;0.391422
2.61476;-0.0104389;-0.0157154;0.391736
2.62474;-0.0118057;-0.0174512;0.392003
2.63472;-0.0128258;-0.0200003;0.392442
2.6447;-0.0135017;-0.0230916;0.392285
2.65468;-0.0142894;-0.0277326;0.39136
2.66466;-0.0153872;-0.0255679;0.392567
2.67464;-0.0166427;-0.0306014;0.391658
2.68462;-0.0175649;-0.0355175;0.391548
2.6946;-0.0185301;-0.0331505;0.391517
2.70458;-0.0192189;-0.0341175;0.391673
2.71456;-0.0202652;-0.0342065;0.391705
2.72454;-0.0215237;-0.0384672;0.391422
2.73452;-0.0223425;-0.0499422;0.391751
2.7445;-0.0233008;-0.0396203;0.391485
2.75448;-0.0240855;-0.0453174;0.391673
2.76446;-0.0238725;-0.043096;0.391767
2.77444;-0.0230901;-0.0390336;0.391234
2.78442;-0.022122;-0.050711;0.391281
2.7944;-0.021182;-0.044848;0.391407
2.80438;-0.0201223;-0.0370996;0.391234
2.81436;-0.0191329;-0.0374071;0.391438
2.82434;-0.0182141;-0.0333851;0.391344
2.83432;-0.0172692;-0.0299176;0.391611
2.8443;-0.0163267;-0.0276072;0.391422
2.85428;-0.0153105;-0.026713;0.391736
2.86426;-0.0144185;-0.0245644;0.391987
2.87424;-0.0132738;-0.0243864;0.391438
2.88422;-0.0123358;-0.0195836;0.392676
2.8942;-0.011418;-0.0158085;0.391626
2.90418;-0.0103712;-0.0208177;0.392535
2.91416;-0.0094045;-0.0135588;0.391516
2.92414;-0.0085179;-0.00848082;0.39125
2.93412;-0.00755071;-0.00948428;0.391438
2.9441;-0.00650241;-0.0117299;0.391673
2.95408;-0.00551395;-0.00884902;0.39172
2.96406;-0.0044612;-0.00651437;0.391893
2.97404;-0.0035568;-0.00346759;0.392489
2.98402;-0.00258415;-0.0012786;0.391877
2.994;-0.00161349;0.00554329;0.391971
3.00398;-0.000635901;0.00452365;0.391328
3.01396;0.000412396;0.00400169;0.391344
3.02394;0.00118527;0.00659125;0.391266
3.03392;0.00215544;0.00818544;0.391438
3.0439;0.00318297;0.0103664;0.39125
3.05388;0.00422682;0.0161281;0.391469
3.06386;0.00513518;0.0194784;0.391344
3.07384;0.00621809;0.0159339;0.391767
3.08382;0.00715908;0.0218211;0.392504
3.0938;0.00813568;0.0240587;0.39183
3.10378;0.00909693;0.0247748;0.393806
3.11376;0.00998204;0.0282869;0.392347
3.12374;0.0111545;0.0307147;0.392081
3.13372;0.0119965;0.0354973;0.392442
3.1437;0.0128609;0.0398793;0.392175
3.15368;0.0138617;0.0409718;0.391611
3.16366;0.0149189;0.0366869;0.391234
3.17364;0.0157749;0.0397296;0.391564
3.18362;0.0167663;0.0430111;0.392269
3.1936;0.0177265;0.0491532;0.391532
3.20358;0.0187704;0.0493232;0.39147
3.21356;0.0198122;0.052552;0.391469
3.22354;0.0207191;0.0537174;0.391234
3.23352;0.0216196;0.0563757;0.391313
3.2435;0.0225017;0.0585809;0.391626
3.25348;0.0236202;0.0581034;0.391297
3.26346;0.0236084;0.0573913;0.391281
3.27344;0.0227425;0.0557202;0.391313
3.28342;0.0215246;0.0596734;0.39125
3.2934;0.0207206;0.0553722;0.391234
3.30338;0.0196688;0.051508;0.391313
3.31336;0.0187096;0.0497966;0.391485
3.32334;0.0176716;0.0472434;0.392222
3.33332;0.0166748;0.0427198;0.391814
3.3433;0.0157882;0.0419591;0.392473
3.35328;0.0148106;0.0391389;0.391516
3.36326;0.0139255;0.0374314;0.391814
3.37324;0.0128871;0.0406602;0.391705
3.38322;0.0119263;0.0350158;0.391626
3.3932;0.0109834;0.030743;0.391564
3.40318;0.00998699;0.0270286;0.391438
3.41316;0.00905391;0.0227396;0.391438
3.42314;0.00806695;0.0215541;0.392128
3.43312;0.00704832;0.0243217;0.391579
3.4431;0.00616864;0.0201986;0.391485
3.45308;0.00525533;0.0176373;0.391485
3.46306;0.00409083;0.013753;0.39183
3.47304;0.00306083;0.0130975;0.391783
3.48302;0.00217423;0.00543404;0.392379
3.493;0.00139048;0.00403811;0.392222
3.50298;0.000358004;0.0030387;0.392034
3.51296;-0.000659142;0.00362944;0.392723
3.52294;-0.00170892;0.00751378;0.39241
3.53292;-0.00260838;0.00299419;0.393774
3.5429;-0.00353652;-0.0020757;0.39263
3.55288;-0.0045418;-0.00256529;0.3931
3.56286;-0.00556587;-0.00822591;0.393288
3.57284;-0.00653505;-0.0127293;0.393069
3.58282;-0.00745528;-0.0105767;0.39172
3.5928;-0.00839775;-0.0140362;0.392347
3.60278;-0.00940896;-0.012268;0.392598
3.61276;-0.0104943;-0.0118189;0.391595
3.62274;-0.0114897;-0.0160877;0.39194
3.63272;-0.0124134;-0.0245199;0.39241
3.6427;-0.0131724;-0.0292621;0.391485
3.65268;-0.0142751;-0.0291367;0.39252
3.66266;-0.0152359;-0.0277933;0.391454
3.67264;-0.0163356;-0.0275789;0.391626
3.68262;-0.0172939;-0.0324869;0.391971
3.6926;-0.0181612;-0.0315198;0.391673
3.70258;-0.0192476;-0.0319569;0.391924
3.71256;-0.020193;-0.0369134;0.391564
3.72254;-0.0211627;-0.0460214;0.391391
3.73252;-0.0219623;-0.0483035;0.392488
3.7425;-0.0229018;-0.0452891;0.391611
3.75248;-0.0238393;-0.0453174;0.391281
3.76246;-0.0241751;-0.0406441;0.391501
3.77244;-0.0234353;-0.0412226;0.391234
3.78242;-0.0222402;-0.0449451;0.391799
3.7924;-0.0211147;-0.0441683;0.391799
3.80238;-0.0202409;-0.0373707;0.391297
3.81236;-0.0193672;-0.0399157;0.391877
3.82234;-0.0182804;-0.0355256;0.391595
3.83232;-0.0174655;-0.0220639;0.391736
3.8423;-0.016391;-0.0291326;0.39172
3.85228;-0.015316;-0.0331424;0.391422
3.86226;-0.0147651;-0.0117866;0.391736
3.87224;-0.0138088;-0.0341216;0.391783
3.88222;-0.0121325;-0.0442695;0.391313
3.8922;-0.0114229;-0.00377511;0.392583
3.90218;-0.0107633;-0.00575774;0.394417
3.91216;-0.00955829;-0.0291528;0.391548
3.92214;-0.00845066;-0.0128102;0.391422
3.93212;-0.0076862;0.00350806;0.392708
3.9421;-0.00687426;-0.0146189;0.393084
3.95208;-0.00562125;-0.0168807;0.392128
3.96206;-0.00474948;-0.000238726;0.392112
3.97204;-0.00363888;-0.00442249;0.393617
3.98202;-0.00276563;-0.00747736;0.391767
3.992;-0.00164761;0.00274332;0.393649
4.00198;-0.000764961;0.00650223;0.39299
4.01196;0.000138454;0.0106819;0.392238
4.02194;0.00108242;0.00841608;0.391438
4.03192;0.0021144;0.00749355;0.391846
4.0419;0.00319978;0.00594791;0.393226
4.05188;0.00398996;0.0199801;0.393084
4.06186;0.00479794;0.0196402;0.394213
4.07184;0.00595552;0.0187056;0.391579
4.08182;0.00716106;0.0221489;0.391689
4.0918;0.00801552;0.0298366;0.391736
4.10178;0.00887689;0.0255598;0.391924
4.11176;0.009628;0.0264945;0.391689
4.12174;0.0108157;0.0328875;0.391689
4.13172;0.011821;0.0331707;0.391548
4.1417;0.0130196;0.0311719;0.391454
4.15168;0.0137445;0.0444313;0.391987
4.16166;0.0143433;0.0510468;0.392144
4.17164;0.0154925;0.0417406;0.392881
4.18162;0.0168197;0.0436989;0.391752
4.1916;0.0178437;0.0493434;0.39194
4.20158;0.0186082;0.0530012;0.391924
4.21156;0.0193732;0.0511723;0.391642
4.22154;0.0203241;0.0611259;0.391893
4.23152;0.0217036;0.0568127;0.392394
4.2415;0.0226051;0.0609965;0.391548
4.25148;0.0233849;0.0621941;0.391485
4.26146;0.0235851;0.0595682;0.391846
4.27144;0.0226699;0.0643589;0.393555
4.28142;0.0219766;0.0604381;0.393602
4.2914;0.0209432;0.0613039;0.392535
4.30138;0.0198227;0.0570878;0.393571
4.31136;0.0188565;0.0466041;0.39321
4.32134;0.0177804;0.0501243;0.392332
4.33132;0.0170031;0.0478706;0.39368
4.3413;0.0162105;0.0426995;0.391689
4.35128;0.0150588;0.0493433;0.392254
4.36126;0.0138429;0.0421088;0.392175
4.37124;0.0130522;0.0314066;0.391501
4.38122;0.0120697;0.0372978;0.392583
4.3912;0.0111624;0.0317545;0.391611
4.40118;0.0103687;0.0291528;0.392332
4.41116;0.00932686;0.0292054;0.391783
4.42114;0.00831418;0.0256164;0.392018
4.43112;0.0072471;0.0262841;0.392144
4.4411;0.00632737;0.0206234;0.391313
4.45108;0.00527511;0.0178963;0.392426
4.46106;0.00441867;0.0121548;0.392191
4.47104;0.00333082;0.01209;0.392959
4.48102;0.00240663;0.0113941;0.391862
4.491;0.00150965;0.00831088;0.391501
4.50098;0.000483107;0.00720223;0.391516
4.51096;-0.000537005;0.00729528;0.391313
4.52094;-0.00151014;0.00320055;0.392755
4.53092;-0.00245312;-0.000428897;0.391971
4.5409;-0.0034045;-0.00521151;0.391422
4.55088;-0.00434401;-0.00634443;0.391297
4.56086;-0.0052672;-0.00631206;0.391767
4.57084;-0.00621463;-0.00738834;0.392222
4.58082;-0.00738407;-0.00603692;0.392159
4.5908;-0.00830232;-0.0127576;0.39241
4.60078;-0.00925467;-0.0172489;0.391422
4.61076;-0.0102135;-0.0215338;0.391579
4.62074;-0.0111584;-0.0205385;0.391924
4.63072;-0.0121563;-0.0230188;0.391266
4.6407;-0.0130804;-0.0239858;0.391438
4.65068;-0.0140921;-0.0250055;0.391767
4.66066;-0.0151389;-0.0267696;0.391407
4.67064;-0.0160795;-0.0286835;0.392034
4.68062;-0.0170847;-0.0342632;0.392112
4.6906;-0.0180035;-0.0382446;0.391814
4.70058;-0.0189894;-0.0383498;0.391611
4.71056;-0.0199468;-0.0393574;0.391579
4.72054;-0.0208903;-0.0399764;0.392081
4.73052;-0.0220582;-0.0369742;0.391987
4.7405;-0.0228721;-0.0470492;0.391422
4.75048;-0.0238131;-0.048085;0.39125
4.76046;-0.0242443;-0.0487971;0.392034
4.77044;-0.0233858;-0.0498815;0.391564
4.78042;-0.0224542;-0.0424972;0.392645
4.7904;-0.0214554;-0.039155;0.391814
4.80038;-0.0204031;-0.0393493;0.392316
4.81036;-0.0195556;-0.0347325;0.391955
4.82034;-0.0186675;-0.0361123;0.391752
4.83032;-0.0177246;-0.0348863;0.392661
4.8403;-0.0165986;-0.034421;0.391438
4.85028;-0.0155573;-0.031091;0.392034
4.86026;-0.0146385;-0.0273968;0.391861
4.87024;-0.0136792;-0.0276072;0.391767
4.88022;-0.0126858;-0.0217766;0.392065
4.8902;-0.0117433;-0.0213437;0.392002
4.90018;-0.0108419;-0.0186246;0.391909
4.91016;-0.00985544;-0.0211211;0.391783
4.92014;-0.00886799;-0.0151813;0.39299
4.93012;-0.00786866;-0.0129397;0.393006
4.9401;-0.00689701;-0.012001;0.39194
4.95008;-0.00577503;-0.00873977;0.391532
4.96006;-0.00504666;-0.000853748;0.392034
4.97004;-0.00400479;-0.00436989;0.391579
4.98002;-0.00298666;-0.00186934;0.391908
4.99;-0.0019621;0.00116126;0.391658
4.99998;-0.00107302;0.00451961;0.39172
5.00996;-2.07682e-05;0.00377106;0.391469
5.01994;0.000956325;0.00689471;0.391611
5.02992;0.00193144;0.0112444;0.391611
5.0399;0.00283634;0.0177951;0.392081
5.04988;0.00372492;0.0184223;0.391814
5.05986;0.00477964;0.0136721;0.39194
5.06984;0.00566377;0.0193125;0.391736
5.07982;0.00674224;0.0214651;0.391234
5.0898;0.00772872;0.0267373;0.391689
5.09978;0.00868306;0.0317748;0.391454
5.10976;0.00955284;0.0280604;0.392175
5.11974;0.0105818;0.0300066;0.391422
5.12972;0.0115649;0.0335146;0.391579
5.1397;0.0124653;0.0376741;0.391234
5.14968;0.0134142;0.0367759;0.39136
5.15966;0.0144165;0.0389568;0.391438
5.16964;0.0155123;0.0423798;0.392159
5.17962;0.0165284;0.0445607;0.391814
5.1896;0.0174566;0.049926;0.392347
5.19958;0.0182626;0.0528757;0.392159
5.20956;0.0192629;0.0541665;0.391626
5.21954;0.0203616;0.0510508;0.392206
5.22952;0.0213283;0.0569017;0.392974
