t;vds;corrente;vg
0.000499;-0.00918685;-0.0122267;0.31069
0.000998;-0.00872203;-0.011964;0.317709
0.001497;-0.00812299;-0.0118894;0.317804
0.001996;-0.00765526;-0.0110615;0.318154
0.002495;-0.00728221;-0.0106972;0.317645
0.002994;-0.00670387;-0.0105068;0.318027
0.003493;-0.00618974;-0.0102832;0.317963
0.003992;-0.0057841;-0.0103081;0.317645
0.004491;-0.00528867;-0.0102749;0.317645
0.00499;-0.00470347;-0.0100845;0.317741
0.005489;-0.00412021;-0.00952157;0.317645
0.005988;-0.00367317;-0.00857352;0.317963
0.006487;-0.00313928;-0.00847416;0.317645
0.006986;-0.00272476;-0.00839136;0.317931
0.007485;-0.00229351;-0.00855282;0.317772
0.007984;-0.00177836;-0.00826302;0.317645
0.008483;-0.00132735;-0.0081471;0.317645
0.008982;-0.000885228;-0.00811398;0.317645
0.009481;-0.000343433;-0.00806016;0.317677
0.00998;0.000157901;-0.00712871;0.318473
0.010479;0.000595086;-0.00771242;0.317645
0.010978;0.00102832;-0.00716182;0.318186
0.011477;0.0015642;-0.0066071;0.320955
0.011976;0.00206652;-0.00645393;0.320255
0.012475;0.00248003;-0.0067023;0.319268
0.012974;0.00305637;-0.00619726;0.31965
0.013473;0.00357152;-0.00632972;0.319555
0.013972;0.00406888;-0.00619726;0.319332
0.014471;0.00449719;-0.00587436;0.319396
0.01497;0.00500645;-0.00544384;0.318473
0.015469;0.00547719;-0.00495948;0.318472
0.015968;0.00597852;-0.00424329;0.319714
0.016467;0.00654401;-0.00421017;0.320668
0.016966;0.0070049;-0.00420189;0.324264
0.017465;0.00744702;-0.00408597;0.325537
0.017964;0.00800063;-0.00415635;0.320732
0.018463;0.00850296;-0.00407355;0.324583
0.018962;0.00896578;-0.00349813;0.318855
0.019461;0.00944638;-0.00279851;0.319268
0.01996;0.0100731;-0.00231829;0.319173
0.020459;0.0105645;-0.00208232;0.319268
0.020958;0.0109721;-0.0018629;0.323659
0.021457;0.0114765;-0.00187946;0.321942
0.021956;0.0119768;-0.00148204;0.319746
0.022455;0.0123547;-0.00099769;0.318377
0.022954;0.0128798;-0.00061683;0.320636
0.023453;0.0133594;-0.000256668;0.321241
0.023952;0.0138371;-6.2097e-05;0.318982
0.024451;0.0143384;3.31184e-05;0.322418
0.02495;0.0149167;0.000269087;0.321909
0.025449;0.0153361;0.00080726;0.319745
0.025948;0.0158404;0.00108877;0.322037
0.026447;0.0163408;0.000583712;0.321209
0.026946;0.016774;0.000923174;0.319777
0.027445;0.0171688;0.00175941;0.320446
0.027944;0.0176197;0.00197468;0.319681
0.028443;0.018051;0.00181737;0.318218
0.028942;0.0185169;0.00198296;0.318027
0.029441;0.0189649;0.00235141;0.318695
0.02994;0.0195195;0.00233899;0.317804
0.030439;0.0199509;0.00285645;0.317645
0.030938;0.0204846;0.00387898;0.317677
0.031437;0.0209999;0.00352711;0.318154
0.031936;0.0214666;0.00386242;0.318568
0.032435;0.0219679;0.00408597;0.318886
0.032934;0.0224269;0.00413151;0.317709
0.033433;0.0229754;0.00440061;0.318823
0.033932;0.02347;0.00413151;0.318409
0.034431;0.0238716;0.00465314;0.319045
0.03493;0.0243935;0.00491394;0.319618
0.035429;0.0248339;0.00487256;0.318855
0.035928;0.0252316;0.00560942;0.320923
0.036427;0.0258356;0.00609376;0.319205
0.036926;0.0263486;0.00619726;0.319936
0.037425;0.0267988;0.00619726;0.319872
0.037924;0.0272804;0.00671059;0.318441
0.038423;0.0278388;0.00675613;0.318504
0.038922;0.0283511;0.00744333;0.317963
0.039421;0.0287388;0.00669818;0.317709
0.03992;0.0292848;0.00792769;0.318855
0.040419;0.0297101;0.00806845;0.318091
0.040918;0.0301501;0.00824646;0.318122
0.041417;0.0306999;0.0079401;0.318122
0.041916;0.0312781;0.00826302;0.318059
0.042415;0.0317559;0.00826302;0.317772
0.042914;0.0322631;0.00826302;0.318504
0.043413;0.0327711;0.0083127;0.317645
0.043912;0.033249;0.00846588;0.317868
0.044411;0.0336664;0.0083748;0.317741
0.04491;0.034225;0.00897508;0.317645
0.045409;0.0347628;0.00996446;0.319937
0.045908;0.035118;0.0102874;0.318377
0.046407;0.0356924;0.0105606;0.318886
0.046906;0.0361888;0.0104861;0.318218
0.047405;0.0366795;0.0106103;0.320732
0.047904;0.0371157;0.0111898;0.319554
0.048403;0.0377097;0.0117446;0.318982
0.048902;0.038219;0.0120716;0.319777
0.049401;0.0386107;0.0122745;0.318123
0.0499;0.0390478;0.012378;0.319141
0.050399;0.0396223;0.0123945;0.31965
0.050898;0.0400862;0.0123573;0.32121
0.051397;0.0405222;0.0126015;0.319268
0.051896;0.0410294;0.0130114;0.318377
0.052395;0.0414894;0.0133757;0.318059
0.052894;0.0419723;0.0142657;0.317645
0.053393;0.0424998;0.0144065;0.318822
0.053892;0.042954;0.0144893;0.319841
0.054391;0.0433714;0.0145183;0.317836
0.05489;0.0438766;0.0147832;0.318186
0.055389;0.0443849;0.015193;0.318441
0.055888;0.0448694;0.0154456;0.3179
0.056387;0.0453661;0.0157229;0.317645
0.056886;0.0458978;0.0154952;0.317804
0.057385;0.0463644;0.0163604;0.317932
0.057884;0.0468118;0.016733;0.317931
0.058383;0.04731;0.0169111;0.317645
0.058882;0.0477619;0.0175155;0.318059
0.059381;0.0482159;0.0174286;0.318154
0.05988;0.0479977;0.0175444;0.318568
0.060379;0.0475866;0.0177473;0.317804
0.060878;0.047089;0.0172671;0.32
0.061377;0.0466626;0.0171222;0.320891
0.061876;0.0461505;0.0165343;0.320032
0.062375;0.0456907;0.0164267;0.319713
0.062874;0.0452179;0.0162321;0.318695
0.063373;0.0447785;0.016257;0.319809
0.063872;0.0442684;0.0158389;0.321241
0.064371;0.0437364;0.0150026;0.318409
0.06487;0.0432943;0.0148329;0.318059
0.065369;0.0428317;0.0147128;0.317931
0.065868;0.0422701;0.0144106;0.319714
0.066367;0.0417618;0.0141125;0.31774
0.066866;0.0413649;0.013446;0.318218
0.067365;0.0408401;0.01244;0.317709
0.067864;0.0403181;0.0124235;0.318282
0.068363;0.0398442;0.0122041;0.317963
0.068862;0.0394663;0.0121875;0.318664
0.069361;0.0388899;0.0120675;0.318854
0.06986;0.0384124;0.0119102;0.320605
0.070359;0.0380128;0.011165;0.322132
0.070858;0.0375568;0.0107676;0.322228
0.071357;0.0370042;0.0103743;0.320573
0.071856;0.0365933;0.0103122;0.32105
0.072355;0.0360508;0.0103122;0.319586
0.072854;0.0355167;0.0101384;0.32191
0.073353;0.0350194;0.00978645;0.322928
0.073852;0.0345508;0.00976992;0.319332
0.074351;0.0339989;0.00966644;0.32054
0.07485;0.0335323;0.00894196;0.319555
0.075349;0.0331195;0.00880949;0.319236
0.075848;0.0326154;0.00867701;0.321687
0.076347;0.0320333;0.00826302;0.3186
0.076846;0.0316481;0.00826302;0.32175
0.077345;0.0310977;0.00826302;0.323724
0.077844;0.030532;0.00826302;0.321719
0.078343;0.0300407;0.0079815;0.318886
0.078842;0.0295236;0.00788628;0.321114
0.079341;0.0290379;0.00703763;0.3193
0.07984;0.0285268;0.00629661;0.318059
0.080339;0.028123;0.00618898;0.31895
0.080838;0.0276396;0.00615172;0.318218
0.081337;0.027091;0.00600684;0.319777
0.081836;0.0266773;0.00589505;0.322514
0.082335;0.0261336;0.00572534;0.32105
0.082834;0.0256657;0.00545625;0.323978
0.083333;0.025208;0.00543554;0.326747
0.083832;0.0247548;0.00490153;0.322896
0.084331;0.0241933;0.00419774;0.319618
0.08483;0.0237286;0.00417705;0.31895
0.085329;0.0232646;0.00420189;0.318218
0.085828;0.0227407;0.00421845;0.319555
0.086327;0.0222324;0.00416463;0.320191
0.086826;0.0218485;0.00413151;0.319937
0.087325;0.0214193;0.00385415;0.322228
0.087824;0.0208181;0.00377549;0.320891
0.088323;0.0203604;0.00317524;0.319172
0.088822;0.0198837;0.00258738;0.31949
0.089321;0.0194031;0.00258738;0.31965
0.08982;0.0189501;0.00214441;0.318759
0.090319;0.018501;0.00204506;0.318663
0.090818;0.0180214;0.00199538;0.318218
0.091317;0.0174826;0.00129575;0.318313
0.091816;0.0170306;0.00145721;0.31895
0.092315;0.0166349;0.00102253;0.318345
0.092814;0.0161118;0.00042226;0.318377
0.093313;0.0157081;0.00100597;0.320223
0.093812;0.0152699;0.000248388;0.318409
0.094311;0.0147974;7.45164e-05;0.31825
0.09481;0.0142861;-9.93552e-05;0.3179
0.095309;0.0137917;-8.2796e-06;0.321973
0.095808;0.0133051;-0.000115914;0.321177
0.096307;0.0127356;-0.00115086;0.320318
0.096806;0.0123172;-0.00144893;0.321019
0.097305;0.0118623;-0.0012792;0.32175
0.097804;0.0112949;-0.00163108;0.324042
0.098303;0.0107807;-0.00210301;0.321337
0.098802;0.010375;-0.00237625;0.319619
0.099301;0.00980272;-0.00243835;0.321527
0.0998;0.00932207;-0.00231001;0.319364
0.100299;0.00881281;-0.0029227;0.318727
0.100798;0.00828783;-0.00314211;0.318059
0.101297;0.00773321;-0.00406113;0.317995
0.101796;0.00738585;-0.00418533;0.319237
0.102295;0.0068608;-0.00420603;0.3186
0.102794;0.0063861;-0.00429297;0.319205
0.103293;0.00589465;-0.00452481;0.318822
0.103792;0.00545843;-0.00488496;0.31844
0.104291;0.00488705;-0.00604408;0.317709
0.10479;0.00431758;-0.00621795;0.317677
0.105289;0.00387251;-0.00616;0.317645
0.105788;0.00338304;-0.00593646;0.319013
0.106287;0.00286195;-0.00634629;0.317772
0.106786;0.00245931;-0.00619726;0.320255
0.107285;0.00193527;-0.00667332;0.31879
0.107784;0.00147045;-0.00637526;0.319109
0.108283;0.00105497;-0.0068265;0.318377
0.108782;0.000541795;-0.00666505;0.318632
0.109281;5.62522e-05;-0.00757581;0.320159
0.10978;-0.000510215;-0.00780764;0.321146
0.110279;-0.000907926;-0.00799807;0.319809
0.110778;-0.00143295;-0.00826716;0.319586
0.111277;-0.00193527;-0.00826302;0.317645
0.111776;-0.00234779;-0.00826302;0.318122
0.112275;-0.00283038;-0.00895852;0.317709
0.112774;-0.00327349;-0.00932279;0.318186
0.113273;-0.00382809;-0.00973678;0.317995
0.113772;-0.00422284;-0.0100638;0.318091
0.114271;-0.00469458;-0.00953806;0.3193
0.11477;-0.0052502;-0.00999345;0.319841
0.115269;-0.00580682;-0.0102004;0.31774
0.115768;-0.00634465;-0.0105357;0.318472
0.116267;-0.00694667;-0.0103702;0.319109
0.116766;-0.00735822;-0.0105357;0.318886
0.117265;-0.00786836;-0.0110035;0.319459
0.117764;-0.00834704;-0.0121585;0.319109
0.118263;-0.00888485;-0.0122786;0.319809
0.118762;-0.00936351;-0.0124732;0.317645
0.119261;-0.00980663;-0.0124483;0.320382
0.11976;-0.0102793;-0.0124773;0.321464
0.120259;-0.0107708;-0.0125808;0.320318
0.120758;-0.0111952;-0.012941;0.318536
0.121257;-0.0118149;-0.0135247;0.321272
0.121756;-0.0122659;-0.0137855;0.318059
0.122255;-0.0128028;-0.0138228;0.321305
0.122754;-0.0133347;-0.0141581;0.31965
0.123253;-0.0138292;-0.0143278;0.319619
0.123752;-0.0143058;-0.0147252;0.320445
0.124251;-0.0147569;-0.0153131;0.318854
0.12475;-0.0152423;-0.0152055;0.318377
0.125249;-0.0156676;-0.0157312;0.319905
0.125748;-0.016099;-0.0162901;0.319936
0.126247;-0.0166487;-0.0160251;0.317645
0.126746;-0.0171175;-0.0163812;0.318059
0.127245;-0.0174865;-0.0164846;0.318218
0.127744;-0.0180332;-0.0165343;0.318377
0.128243;-0.018503;-0.016526;0.318377
0.128742;-0.018953;-0.0166378;0.319681
0.129241;-0.0194376;-0.0170684;0.318918
0.12974;-0.0199529;-0.0176024;0.321591
0.130239;-0.0204096;-0.0184055;0.322769
0.130738;-0.0208469;-0.0183144;0.327255
0.131237;-0.0214054;-0.0185918;0.322483
0.131736;-0.0218633;-0.0186705;0.321941
0.132235;-0.0222907;-0.0190224;0.322069
0.132734;-0.0227476;-0.0190182;0.324996
0.133233;-0.0233012;-0.0192542;0.319905
0.133732;-0.0236704;-0.0198296;0.319937
0.134231;-0.024138;-0.0196681;0.322896
0.13473;-0.0247144;-0.0202932;0.320605
0.135229;-0.0251694;-0.0205996;0.320859
0.135728;-0.0256026;-0.0205996;0.321209
0.136227;-0.026174;-0.0210343;0.318377
0.136726;-0.0266744;-0.0210011;0.31895
0.137225;-0.0271295;-0.0206989;0.318472
0.137724;-0.0275843;-0.0216097;0.318282
0.138223;-0.0281458;-0.0220486;0.318027
0.138722;-0.0285495;-0.0217711;0.319459
0.139221;-0.0290991;-0.0226448;0.317931
0.13972;-0.0295325;-0.0226903;0.319713
0.140219;-0.030013;-0.0224792;0.322036
0.140718;-0.0304402;-0.0226116;0.323469
0.141217;-0.0309447;-0.0227234;0.321846
0.141716;-0.0314902;-0.02274;0.320445
0.142215;-0.0319987;-0.0229511;0.319809
0.142714;-0.0324732;-0.0228642;0.322164
0.143213;-0.0330515;-0.023721;0.319237
0.143712;-0.0335175;-0.0244744;0.318314
0.144211;-0.0339091;-0.0239198;0.319618
0.14471;-0.0344688;-0.0246441;0.3186
0.145209;-0.0349108;-0.0247435;0.317963
0.145708;-0.0353114;-0.0249298;0.321082
0.146207;-0.0358247;-0.0251699;0.317741
0.146706;-0.036395;-0.0253065;0.319109
0.147205;-0.0369144;-0.0263664;0.317772
0.147704;-0.0373337;-0.0258075;0.319968
0.148203;-0.0379605;-0.0267515;0.317995
0.148702;-0.0383877;-0.0268343;0.319204
0.149201;-0.0388337;-0.026855;0.317645
0.1497;-0.0393835;-0.0270495;0.318154
0.150199;-0.0398827;-0.0275132;0.3179
0.150698;-0.0402333;-0.0274469;0.318059
0.151197;-0.0407807;-0.0278692;0.318027
0.151696;-0.0413037;-0.0283204;0.320605
0.152195;-0.0417925;-0.0288626;0.319841
0.152694;-0.0422958;-0.0289123;0.319427
0.153193;-0.042879;-0.029049;0.320541
0.153692;-0.0433438;-0.0290324;0.320446
0.154191;-0.0437987;-0.029198;0.320064
0.15469;-0.0443908;-0.0302289;0.321304
0.155189;-0.0448823;-0.0305311;0.321655
0.155688;-0.0453316;-0.0306967;0.322387
0.156187;-0.0457934;-0.0309865;0.322896
0.156686;-0.0462884;-0.0310486;0.319841
0.157185;-0.0467101;-0.0310403;0.321782
0.157684;-0.0471306;-0.0311852;0.321846
0.158183;-0.0476543;-0.031537;0.32105
0.158682;-0.0481389;-0.0314004;0.322037
0.159181;-0.0486772;-0.0320296;0.320064
0.15968;-0.0488755;-0.0318185;0.321782
0.160179;-0.0484992;-0.0315288;0.319013
0.160678;-0.0479582;-0.0316116;0.320509
0.161177;-0.047476;-0.0311686;0.319777
0.161676;-0.0470584;-0.0310693;0.319777
0.162175;-0.0464759;-0.0308871;0.320699
0.162674;-0.0459365;-0.0306387;0.322196
0.163173;-0.0455022;-0.0303572;0.322354
0.163672;-0.0450747;-0.0301211;0.319968
0.164171;-0.0444608;-0.029376;0.323979
0.16467;-0.044087;-0.0289661;0.319555
0.165169;-0.0436121;-0.0289578;0.321305
0.165668;-0.043091;-0.0288916;0.323278
0.166167;-0.0425968;-0.0289206;0.321273
0.166666;-0.0421013;-0.0286639;0.320541
0.167165;-0.0416216;-0.0287053;0.321082
0.167664;-0.0410817;-0.0285894;0.321337
0.168163;-0.0406182;-0.0279933;0.324106
0.168662;-0.0400781;-0.0275422;0.321591
0.169161;-0.0395936;-0.0270909;0.325283
0.16966;-0.0391477;-0.0272648;0.319841
0.170159;-0.0386216;-0.026855;0.322896
0.170658;-0.0380572;-0.0263126;0.324137
0.171157;-0.0375449;-0.0261677;0.322801
0.171656;-0.0371818;-0.0254639;0.326937
0.172155;-0.0366526;-0.0256791;0.323755
0.172654;-0.0360606;-0.0249132;0.322801
0.173153;-0.0356401;-0.0247849;0.323596
0.173652;-0.0351753;-0.0248304;0.321177
0.174151;-0.0346928;-0.0246276;0.320509
0.17465;-0.0342911;-0.0245117;0.320318
0.175149;-0.0338253;-0.0245241;0.319554
0.175648;-0.033239;-0.0246648;0.32105
0.176147;-0.0327269;-0.0245448;0.3207
0.176646;-0.0322632;-0.0244786;0.32051
0.177145;-0.0317676;-0.023808;0.323214
0.177644;-0.0311628;-0.0230794;0.324837
0.178143;-0.0307698;-0.0232698;0.323182
0.178642;-0.0302943;-0.0229511;0.324679
0.179141;-0.0298128;-0.0227234;0.330184
0.17964;-0.0293814;-0.0227151;0.3263
0.180139;-0.0288584;-0.0225951;0.324997
0.180638;-0.0283638;-0.022446;0.324042
0.181137;-0.0278251;-0.0221314;0.327288
0.181636;-0.0273812;-0.0210135;0.323182
0.182135;-0.0268599;-0.0209142;0.323469
0.182634;-0.026335;-0.020997;0.32366
0.183133;-0.0259233;-0.0207983;0.325474
0.183632;-0.0253728;-0.0204174;0.32541
0.184131;-0.0248347;-0.0198503;0.327128
0.18463;-0.0244479;-0.0189354;0.330343
0.185129;-0.0239625;-0.0186746;0.330406
0.185628;-0.0234334;-0.0186539;0.326015
0.186127;-0.0229174;-0.0184676;0.327446
0.186626;-0.022566;-0.0181654;0.322164
0.187125;-0.0220232;-0.0180164;0.321432
0.187624;-0.0215742;-0.0174575;0.319045
0.188123;-0.0211429;-0.0169317;0.320859
0.188622;-0.0206652;-0.0172837;0.319045
0.189121;-0.0201107;-0.0170518;0.319013
0.18962;-0.0196231;-0.0169359;0.320731
0.190119;-0.0192422;-0.0165343;0.326397
0.190618;-0.0187043;-0.0166254;0.323596
0.191117;-0.0182168;-0.016526;0.319968
0.191616;-0.017824;-0.0165385;0.318822
0.192115;-0.0173484;-0.0165178;0.318059
0.192614;-0.016855;-0.0164681;0.320095
0.193113;-0.0164375;-0.0159589;0.323405
0.193612;-0.016016;-0.0155532;0.32557
0.194111;-0.0154851;-0.0153752;0.322101
0.19461;-0.0149563;-0.0146424;0.320064
0.195109;-0.0144845;-0.0145845;0.323437
0.195608;-0.013991;-0.0143816;0.324169
0.196107;-0.0134225;-0.0133136;0.327256
0.196606;-0.0130889;-0.0133508;0.325187
0.197105;-0.0125077;-0.0133136;0.32576
0.197604;-0.011962;-0.012647;0.323819
0.198103;-0.0114883;-0.0127381;0.320413
0.198602;-0.0110363;-0.0123945;0.319618
0.199101;-0.0105053;-0.0123531;0.320413
0.1996;-0.0100079;-0.0123738;0.318409
0.200099;-0.00963496;-0.0117114;0.319109
0.200598;-0.00910394;-0.0112271;0.319014
0.201097;-0.00851483;-0.0110077;0.317836
0.201596;-0.00801147;-0.0108918;0.318854
0.202095;-0.00757829;-0.0104943;0.319173
0.202594;-0.00704238;-0.010544;0.318663
0.203093;-0.00648971;-0.0103288;0.319523
0.203592;-0.00603084;-0.00998933;0.319745
0.204091;-0.00552258;-0.009505;0.319586
0.20459;-0.00500644;-0.00936838;0.318059
0.205089;-0.00456431;-0.0088302;0.319937
0.205588;-0.0040452;-0.00860663;0.319395
0.206087;-0.00354685;-0.00894612;0.32035
0.206586;-0.00312053;-0.0087267;0.318186
0.207085;-0.00272773;-0.00830028;0.318759
0.207584;-0.00211784;-0.00825474;0.320381
0.208083;-0.00168658;-0.00806017;0.318059
0.208582;-0.0011428;-0.00779107;0.319586
0.209081;-0.000694761;-0.00766273;0.317772
0.20958;-9.86881e-05;-0.00709974;0.3179
0.210079;0.000362184;-0.00661537;0.318568
0.210578;0.00075496;-0.00631317;0.319873
0.211077;0.00124939;-0.00637113;0.3221
0.211576;0.00156124;-0.00620139;0.321082
0.212075;0.00207639;-0.00612688;0.32331
0.212574;0.0025738;-0.00582054;0.324455
0.213073;0.00311262;-0.00577087;0.321369
0.213572;0.00355277;-0.00532379;0.323245
0.214071;0.00416855;-0.00421017;0.328815
0.21457;0.00467682;-0.00457862;0.327479
0.215069;0.00517225;-0.00490981;0.320191
0.215568;0.00564596;-0.00426399;0.323564
0.216067;0.00616206;-0.00407769;0.327956
0.216566;0.00659138;-0.00411081;0.325505
0.217065;0.00708979;-0.0039121;0.322514
0.217564;0.00760784;-0.00400317;0.322737
0.218063;0.00811907;-0.00370926;0.321082
0.218562;0.00853158;-0.00293926;0.323151
0.219061;0.00910693;-0.00272812;0.322578
0.21956;0.00961614;-0.002517;0.318854
0.220059;0.0100109;-0.00228103;0.318918
0.220558;0.0105606;-0.00231829;0.319364
0.221057;0.0110758;-0.00197882;0.321209
0.221556;0.0115801;-0.00184221;0.320923
0.222055;0.012102;-0.00175527;0.318313
0.222554;0.0125699;-0.00143237;0.320286
0.223053;0.0130969;-0.000898335;0.318631
0.223552;0.0134689;-0.000641669;0.320318
0.224051;0.0139733;-0.000637529;0.323214
0.22455;0.0144608;-0.000240108;0.322387
0.225049;0.014889;-7.03766e-05;0.321623
0.225548;0.0153558;0;0.319554
0.226047;0.0159707;0.000327044;0.320127
0.226546;0.0164474;0.000521615;0.3207
0.227045;0.0168343;0.00042226;0.320096
0.227544;0.0174381;0.00132059;0.319713
0.228043;0.0178151;0.00163936;0.319809
0.228542;0.0182987;0.00190016;0.322259
0.229041;0.0187211;0.00217339;0.321401
0.22954;0.0191751;0.00205748;0.319045
0.230039;0.0196221;0.00254598;0.322133
0.230538;0.0200881;0.00270742;0.323024
0.231037;0.0206079;0.002517;0.319141
0.231536;0.0211291;0.00279437;0.322386
0.232035;0.0215327;0.00390796;0.321718
0.232534;0.0220636;0.00359334;0.320827
0.233033;0.022576;0.00413151;0.323533
0.233532;0.0230119;0.00413151;0.321909
0.234031;0.0234908;0.00485185;0.320891
0.23453;0.0240315;0.00513337;0.320255
0.235029;0.024512;0.005063;0.321336
0.235528;0.0249277;0.00526582;0.321337
0.236027;0.025424;0.00534033;0.3193
0.236526;0.0259057;0.00581226;0.318791
0.237025;0.0263694;0.00579156;0.319109
0.237524;0.0268788;0.00606064;0.317868
0.238023;0.0273208;0.00619726;0.318091
0.238522;0.0277914;0.00616414;0.318282
0.239021;0.0282732;0.00621795;0.318345
0.23952;0.028799;0.00625107;0.320255
0.240019;0.0292986;0.00670232;0.318282
0.240518;0.0298018;0.00741022;0.318473
0.241017;0.0303109;0.00740194;0.317836
0.241516;0.0308382;0.00799807;0.31774
0.242015;0.0313274;0.00821748;0.317677
0.242514;0.0318468;0.00826302;0.317677
0.243013;0.0324259;0.008292;0.318472
0.243512;0.0327544;0.0083127;0.317677
0.244011;0.0332273;0.00882604;0.318886
0.24451;0.033766;0.00851141;0.319682
0.245009;0.034229;0.00861491;0.318059
0.245508;0.0346849;0.00942215;0.318568
0.246007;0.0352689;0.0101549;0.318027
0.246506;0.0358079;0.0103246;0.318154
0.247005;0.0362786;0.0104157;0.318409
0.247504;0.0368433;0.0109497;0.320191
0.248003;0.0373614;0.011136;0.320127
0.248502;0.0377798;0.0113513;0.319618
0.249001;0.0381884;0.0109332;0.318123
0.2495;0.0387311;0.0118274;0.320573
0.249999;0.0391386;0.0121834;0.318123
0.250498;0.0395917;0.0124111;0.318313
0.250997;0.0401217;0.0122579;0.317645
0.251496;0.0406406;0.0125063;0.318568
0.251995;0.0410669;0.0131024;0.320955
0.252494;0.0416346;0.013297;0.31825
0.252993;0.042138;0.0139097;0.318377
