t;vds;corrente;vg
0.000499;-0.0376682;-0.0267706;-0.017721
0.000998;-0.0380966;-0.0269833;-0.0158821
0.001497;-0.0386887;-0.0272979;-0.0155957
0.001996;-0.0392057;-0.027269;-0.0158821
0.002495;-0.0396489;-0.0280016;-0.0158503
0.002994;-0.0402383;-0.0284445;-0.0158821
0.003493;-0.0406268;-0.028904;-0.0158821
0.003992;-0.0410659;-0.0289827;-0.015723
0.004491;-0.041601;-0.0289206;-0.0158503
0.00499;-0.042064;-0.0289496;-0.0158821
0.005489;-0.0425759;-0.0292725;-0.0158821
0.005988;-0.0431582;-0.029082;-0.0158821
0.006487;-0.0436073;-0.0295582;-0.0158821
0.006986;-0.0440501;-0.0301751;-0.0158821
0.007485;-0.0445507;-0.029881;-0.0156912
0.007984;-0.0450927;-0.0300052;-0.0157548
0.008483;-0.0455004;-0.0309285;-0.0158821
0.008982;-0.0459963;-0.0307216;-0.0152138
0.009481;-0.0465136;-0.0309327;-0.0158821
0.00998;-0.0470201;-0.030883;-0.0154047
0.010479;-0.0473751;-0.0309865;-0.0144817
0.010978;-0.0480225;-0.0310941;-0.014609
0.011477;-0.0484747;-0.03121;-0.0158821
0.011976;-0.0488399;-0.0312762;-0.0158821
0.012475;-0.0486939;-0.0310817;-0.0156275
0.012974;-0.0482336;-0.0311065;-0.0158185
0.013473;-0.0476368;-0.0310527;-0.0154047
0.013972;-0.0471581;-0.0309492;-0.0155639
0.014471;-0.0467485;-0.0309782;-0.0158821
0.01497;-0.0461643;-0.0309244;-0.0158503
0.015469;-0.0457342;-0.0305476;-0.015723
0.015968;-0.0453216;-0.0305766;-0.0158821
0.016467;-0.0449157;-0.0305394;-0.0155957
0.016966;-0.0442912;-0.0296451;-0.0158503
0.017465;-0.0438787;-0.0293719;-0.0158821
0.017964;-0.043399;-0.0290613;-0.0157867
0.018463;-0.042881;-0.0289289;-0.0158821
0.018962;-0.0422957;-0.0289206;-0.0158821
0.019461;-0.0418833;-0.028962;-0.0158821
0.01996;-0.0413747;-0.028726;-0.015532
0.020459;-0.0408212;-0.0278361;-0.0148955
0.020958;-0.0403646;-0.0277409;-0.0158185
0.021457;-0.0399073;-0.0272234;-0.0158821
0.021956;-0.0393421;-0.0270206;-0.0158821
0.022455;-0.0389413;-0.026855;-0.0158821
0.022954;-0.0384765;-0.026855;-0.0158821
0.023453;-0.0379664;-0.0267018;-0.0158185
0.023952;-0.0374176;-0.0266687;-0.0158821
0.024451;-0.0370644;-0.0266148;-0.0158821
0.02495;-0.0364966;-0.0261429;-0.0158821
0.025449;-0.0359452;-0.0259772;-0.0158821
0.025948;-0.0355088;-0.0255508;-0.0158185
0.026447;-0.0349918;-0.0249381;-0.0158821
0.026946;-0.0344313;-0.024847;-0.0158821
0.027445;-0.0339515;-0.024789;-0.0158821
0.027944;-0.0335007;-0.0247518;-0.0158821
0.028443;-0.0330208;-0.0247435;-0.0157867
0.028942;-0.0325848;-0.0247228;-0.0158821
0.029441;-0.0321636;-0.0240026;-0.0158821
0.02994;-0.0316205;-0.0237459;-0.0158821
0.030439;-0.0310395;-0.0234768;-0.0158821
0.030938;-0.0305438;-0.0231456;-0.0158185
0.031437;-0.0301206;-0.0229801;-0.0157548
0.031936;-0.0295858;-0.0227027;-0.0154366
0.032435;-0.0290754;-0.0227193;-0.0158185
0.032934;-0.028665;-0.022297;-0.014991
0.033433;-0.0280796;-0.022003;-0.0158821
0.033932;-0.027536;-0.0212619;-0.0150864
0.034431;-0.0271828;-0.0212826;-0.015723
0.03493;-0.0266062;-0.0208107;-0.0158821
0.035429;-0.0261474;-0.0209763;-0.0158821
0.035928;-0.025649;-0.0206037;-0.0157867
0.036427;-0.025208;-0.0201856;-0.0158821
0.036926;-0.0246541;-0.0199124;-0.0158821
0.037425;-0.0241617;-0.0198627;-0.0158821
0.037924;-0.0237128;-0.0186456;-0.0158503
0.038423;-0.0232478;-0.0187947;-0.0151501
0.038922;-0.0227368;-0.0185918;-0.0158821
0.039421;-0.0223626;-0.01848;-0.0158821
0.03992;-0.0217933;-0.0185918;-0.0158821
0.040419;-0.0212634;-0.0176024;-0.0157548
0.040918;-0.0209356;-0.0178508;-0.0158503
0.041417;-0.0204936;-0.0179791;-0.0158821
0.041916;-0.0199044;-0.017441;-0.0152138
0.042415;-0.0194959;-0.0168945;-0.0158821
0.042914;-0.0190192;-0.016613;-0.0157548
0.043413;-0.0184862;-0.0164515;-0.0158821
0.043912;-0.0179365;-0.0162652;-0.0140043
0.044411;-0.0176049;-0.0162321;-0.0155639
0.04491;-0.0171165;-0.0154249;-0.0140679
0.045409;-0.0165599;-0.0149529;-0.0153729
0.045908;-0.0161828;-0.0149819;-0.0154684
0.046407;-0.0156341;-0.0148784;-0.0152138
0.046906;-0.0151112;-0.0144851;-0.0148955
0.047405;-0.0147342;-0.0149115;-0.0150228
0.047904;-0.0142999;-0.0145803;-0.0145135
0.048403;-0.0138765;-0.0146714;-0.0144181
0.048902;-0.0133752;-0.0145017;-0.0153092
0.049401;-0.0128926;-0.0137524;-0.0154684
0.0499;-0.0122916;-0.0134295;-0.0130176
0.050399;-0.0117488;-0.0130693;-0.012572
0.050898;-0.0112909;-0.0130652;-0.0157867
0.051397;-0.0107816;-0.0130527;-0.0158185
0.051896;-0.0101629;-0.0125435;-0.0158821
0.052395;-0.00975931;-0.012676;-0.0158821
0.052894;-0.00930628;-0.0125228;-0.0158821
0.053393;-0.00876347;-0.0123986;-0.0158821
0.053892;-0.00832139;-0.0122662;-0.0158503
0.054391;-0.0078812;-0.011728;-0.0158503
0.05489;-0.00744013;-0.0112147;-0.0153411
0.055389;-0.00689534;-0.010809;-0.0158821
0.055888;-0.00638906;-0.0105978;-0.0157867
0.056387;-0.00579496;-0.0103867;-0.0158503
0.056886;-0.00529854;-0.0103122;-0.0158821
0.057385;-0.00487718;-0.0102004;-0.0158821
0.057884;-0.00439258;-0.0101921;-0.0158821
0.058383;-0.00382514;-0.00970785;-0.0158503
0.058882;-0.00330705;-0.00877223;-0.015532
0.059381;-0.00289748;-0.00846174;-0.0155957
0.05988;-0.00233496;-0.0082506;-0.0154047
0.060379;-0.00184547;-0.0081471;-0.0151819
0.060878;-0.00142407;-0.00801877;-0.0153729
0.061377;-0.000936545;-0.00803119;-0.0153729
0.061876;-0.000421396;-0.00783662;-0.0141316
0.062375;2.26982e-05;-0.00662365;-0.0128903
0.062874;0.000495412;-0.00668161;-0.0158821
0.063373;0.00102438;-0.00632145;-0.0156275
0.063872;0.0014448;-0.00619726;-0.0158503
0.064371;0.00191158;-0.0061807;-0.0156275
0.06487;0.00237838;-0.00616414;-0.0158821
0.065369;0.00292709;-0.00619726;-0.0158821
0.065868;0.00334454;-0.00616828;-0.0158821
0.066367;0.00390309;-0.00510439;-0.0158821
0.066866;0.00442219;-0.00528652;-0.015532
0.067365;0.00489394;-0.0047732;-0.0154366
0.067864;0.00538639;-0.00422673;-0.0158821
0.068363;0.00591734;-0.00428055;-0.0157867
0.068862;0.00635057;-0.00413151;-0.0158821
0.069361;0.00688252;-0.00404871;-0.0158185
0.06986;0.00745886;-0.00380861;-0.0157867
0.070359;0.00789206;-0.00351056;-0.0158821
0.070858;0.00834409;-0.00315453;-0.0158821
0.071357;0.00882268;-0.00316282;-0.0157867
0.071856;0.00943259;-0.00289373;-0.0155639
0.072355;0.00987671;-0.00239281;-0.0158821
0.072854;0.0103198;-0.00217753;-0.0158821
0.073353;0.0108261;-0.00215683;-0.0158503
0.073852;0.0113166;-0.00205334;-0.0157867
0.074351;0.0117686;-0.00169731;-0.0158503
0.07485;0.0123172;-0.00154828;-0.0152774
0.075349;0.012783;-0.00148204;-0.0151501
0.075848;0.0131728;-0.0011136;-0.0158821
0.076347;0.0137473;-1.24194e-05;-0.0156275
0.076846;0.0142279;4.1398e-06;-0.0143544
0.077345;0.0146918;0.000178011;-0.0151819
0.077844;0.0152038;0.000368442;-0.0144817
0.078343;0.0157328;0.000343604;-0.0140998
0.078842;0.0162362;0.000865217;-0.0144181
0.079341;0.0166941;0.00111774;-0.0142907
0.07984;0.0171629;0.00132059;-0.0151183
0.080339;0.0176286;0.00171801;-0.0132086
0.080838;0.0179384;0.00194984;-0.0158185
0.081337;0.0184567;0.00191258;-0.0142271
0.081836;0.0189747;0.00226447;-0.0148318
0.082335;0.0193932;0.0025998;-0.0153411
0.082834;0.0198601;0.00237624;-0.0157548
0.083333;0.0204343;0.00264119;-0.0155002
0.083832;0.0209061;0.0032042;-0.0149591
0.084331;0.0214064;0.00326215;-0.0123174
0.08483;0.0219758;0.0036513;-0.0106624
0.085329;0.0224042;0.00385414;-0.0124447
0.085828;0.0228531;0.00413151;-0.0122856
0.086327;0.0233624;0.00413565;-0.0126039
0.086826;0.0237789;0.00443373;-0.0137497
0.087325;0.0241883;0.00520786;-0.0116172
0.087824;0.0246848;0.00515817;-0.013495
0.088323;0.0252099;0.00560529;-0.0133359
0.088822;0.0256441;0.0047318;-0.015532
0.089321;0.0261602;0.00579156;-0.0153411
0.08982;0.0267149;0.00618484;-0.0142589
0.090319;0.0271906;0.00610618;-0.0147682
0.090818;0.0276169;0.00616414;-0.0133041
0.091317;0.0280994;0.00630489;-0.014991
0.091816;0.0287053;0.00653258;-0.0121901
0.092315;0.0290606;0.0068265;-0.012954
0.092814;0.029572;0.00715768;-0.0141634
0.093313;0.0301481;0.00794011;-0.0132723
0.093812;0.0305863;0.00797737;-0.0137178
0.094311;0.0310434;0.00820093;-0.0146409
0.09481;0.031671;0.0082713;-0.0156912
0.095309;0.0321565;0.00887574;-0.0158821
0.095808;0.0326271;0.009062;-0.0158821
0.096307;0.033087;0.00911994;-0.0158503
0.096806;0.0336083;0.00960432;-0.0154366
0.097305;0.0340739;0.0100431;-0.0156593
0.097804;0.0347234;0.0103453;-0.0158821
0.098303;0.035194;0.0105689;-0.0156912
0.098802;0.035563;0.0104902;-0.0158185
0.099301;0.0360626;0.010751;-0.0156593
0.0998;0.0366242;0.0106351;-0.0158185
0.100299;0.0370604;0.0108421;-0.0158821
0.100798;0.0375339;0.0121917;-0.0126993
0.101297;0.0380966;0.0123117;-0.0148318
0.101796;0.0385683;0.0126263;-0.0141953
0.102295;0.038961;0.0132432;-0.0103759
0.102794;0.0395216;0.0129534;-0.0108852
0.103293;0.0400793;0.0140422;-0.00604731
0.103792;0.0404424;0.0135951;-0.0115535
0.104291;0.0409584;0.0140132;-0.010917
0.10479;0.0414015;0.0141374;-0.014609
0.105289;0.0419199;0.0139883;-0.012763
0.105788;0.0424042;0.0144023;-0.015532
0.106287;0.0429333;0.0147335;-0.0137815
0.106786;0.0433447;0.0147459;-0.014609
0.107285;0.0438066;0.0148205;-0.0146727
0.107784;0.0443049;0.0152841;-0.0144181
0.108283;0.0448685;0.0155863;-0.0151501
0.108782;0.0452309;0.0155242;-0.0154684
0.109281;0.0456997;0.0162031;-0.011108
0.10978;0.0461798;0.0165053;-0.0150546
0.110279;0.0466617;0.0165923;-0.0140998
0.110778;0.0471385;0.017234;-0.00884817
0.111277;0.047596;0.016998;-0.0156593
0.111776;0.0481705;0.0184676;-0.0152456
0.112275;0.0481773;0.0182896;-0.015723
0.112774;0.0476811;0.0172174;-0.0150864
0.113273;0.047167;0.0172008;-0.0147363
0.113772;0.0467258;0.0167372;-0.0147045
0.114271;0.0462332;0.0167413;-0.0139406
0.11477;0.0458447;0.0165219;-0.0148955
0.115269;0.0453996;0.0163936;-0.0158821
0.115768;0.0448674;0.0164225;-0.0158821
0.116267;0.0444657;0.0161534;-0.0158821
0.116766;0.0439645;0.0152924;-0.0143544
0.117265;0.0435046;0.0148205;-0.0153092
0.117764;0.043022;0.0149074;-0.014609
0.118263;0.0425179;0.0144851;-0.014609
0.118762;0.041982;0.0143651;-0.0150546
0.119261;0.0414646;0.0133177;-0.015532
0.11976;0.0410017;0.0130155;-0.0144817
0.120259;0.0405363;0.0130362;-0.010917
0.120758;0.0399922;0.012527;-0.0139406
0.121257;0.0395551;0.0124028;-0.0148636
0.121756;0.039114;0.0125849;-0.0143862
0.122255;0.0386305;0.0124069;-0.0153411
0.122754;0.0380562;0.0121792;-0.0154366
0.123253;0.0376713;0.0123945;-0.0156275
0.123752;0.0372212;0.0120343;-0.0151501
0.124251;0.0366674;0.0116121;-0.0156275
0.12475;0.0361602;0.0115748;-0.0153729
0.125249;0.0356243;0.0107179;-0.0156912
0.125748;0.0351457;0.0110449;-0.0142907
0.126247;0.0346445;0.0102211;-0.0158821
0.126746;0.0341312;0.0102418;-0.015723
0.127245;0.0335965;0.0101756;-0.0155957
0.127744;0.0330791;0.00992308;-0.0158821
0.128243;0.0327595;0.00855282;-0.0158185
0.128742;0.0321853;0.00841206;-0.0155639
0.129241;0.0317518;0.00830442;-0.0158503
0.12974;0.0312802;0.00827958;-0.0156593
0.130239;0.0307639;0.0082299;-0.0148955
0.130738;0.0301808;0.00811398;-0.0158821
0.131237;0.0297684;0.00817194;-0.0158821
0.131736;0.0292234;0.00741021;-0.0158821
0.132235;0.0286926;0.00631317;-0.0158821
0.132734;0.0282454;0.00642081;-0.0158821
0.133233;0.0278202;0.00662778;-0.0155002
0.133732;0.0272687;0.00627591;-0.0156593
0.134231;0.0267424;0.00620553;-0.0158503
0.13473;0.026334;0.0061807;-0.0153092
0.135229;0.0258059;0.00602339;-0.0156593
0.135728;0.025284;0.00601511;-0.0158821
0.136227;0.0247715;0.00543143;-0.0156912
0.136726;0.0243868;0.00520376;-0.0143544
0.137225;0.0237839;0.0044627;-0.0140998
0.137724;0.0233445;0.00413151;-0.0137497
0.138223;0.0228542;0.00411909;-0.012763
0.138722;0.022412;0.00408183;-0.0146727
0.139221;0.0218574;0.0039742;-0.0154684
0.13972;0.0214618;0.00315867;-0.0158821
0.140219;0.0210175;0.00342775;-0.0144817
0.140718;0.0204216;0.00244249;-0.0158185
0.141217;0.0200031;0.00248802;-0.0153092
0.141716;0.019489;0.00211129;-0.0158503
0.142215;0.0189936;0.0020078;-0.0147045
0.142714;0.0186086;0.00167247;-0.0157548
0.143213;0.0181299;0.00176355;-0.0157867
0.143712;0.0177026;0.00205748;-0.0154684
0.144211;0.0172211;0.00187532;-0.0156912
0.14471;0.016776;0.00121296;-0.0158185
0.145209;0.0162174;0.000513336;-0.0150228
0.145708;0.0157742;0.000579572;-0.0158821
0.146207;0.0152877;0.000153173;-0.0158821
0.146706;0.0148901;0;-0.0158821
0.147205;0.0143029;-4.1398e-05;-0.0158821
0.147704;0.0138696;-0.000405701;-0.0158821
0.148203;0.0134284;-0.00080312;-0.0158821
0.148702;0.0129074;-0.00103495;-0.0158821
0.149201;0.0124573;-0.00146963;-0.0158821
0.1497;0.0121229;-0.00172629;-0.015723
0.150199;0.0115317;-0.0020699;-0.0158503
0.150698;0.0109781;-0.00215269;-0.0157867
0.151197;0.0104579;-0.00242179;-0.0158821
0.151696;0.0100405;-0.00210715;-0.0158503
0.152195;0.00942275;-0.00218167;-0.0148636
0.152694;0.00895787;-0.00254183;-0.0158821
0.153193;0.00853061;-0.00256667;-0.0152774
0.153692;0.00797988;-0.00370926;-0.015532
0.154191;0.00752698;-0.00398248;-0.0157548
0.15469;0.00706212;-0.00411909;-0.0156912
0.155189;0.00651932;-0.00407769;-0.0153729
0.155688;0.00601999;-0.00433436;-0.0158503
0.156187;0.00555613;-0.00464072;-0.0158821
0.156686;0.00504789;-0.00482286;-0.0158821
0.157185;0.00454062;-0.00464898;-0.0157548
0.157684;0.0040531;-0.00617656;-0.0158821
0.158183;0.00355475;-0.00619726;-0.0156593
0.158682;0.00296163;-0.00611446;-0.0152456
0.159181;0.00249582;-0.0061807;-0.0153411
0.15968;0.00198066;-0.00624693;-0.0153092
0.160179;0.00149414;-0.00624693;-0.0158821
0.160678;0.00109149;-0.00636285;-0.0154047
0.161177;0.000649365;-0.00701279;-0.014991
0.161676;0.000183559;-0.00738123;-0.0151819
0.162175;-0.000335538;-0.00801877;-0.0156593
0.162674;-0.000745091;-0.0082713;-0.0155002
0.163173;-0.00124544;-0.00817608;-0.0141953
0.163672;-0.00185335;-0.00831684;-0.0152774
0.164171;-0.00225305;-0.00851969;-0.0144817
0.16467;-0.00274353;-0.00858179;-0.0157867
0.165169;-0.00324684;-0.00848657;-0.0158821
0.165668;-0.00376493;-0.00895849;-0.0144499
0.166167;-0.0041508;-0.00899578;-0.0158503
0.166666;-0.00470347;-0.00935178;-0.0158185
0.167165;-0.00525317;-0.0099893;-0.0154047
0.167664;-0.00564596;-0.0103081;-0.0158503
0.168163;-0.00617588;-0.0102542;-0.0156912
0.168662;-0.00672067;-0.0102667;-0.0155639
0.169161;-0.00721216;-0.010453;-0.0154366
0.16966;-0.00766211;-0.0106724;-0.0155957
0.170159;-0.00817928;-0.0110284;-0.0158821
0.170658;-0.00873089;-0.0118646;-0.0156275
0.171157;-0.00918687;-0.0118853;-0.0147682
0.171656;-0.00972372;-0.0121585;-0.0156912
0.172155;-0.0102556;-0.0122455;-0.0158503
0.172654;-0.0106889;-0.0124152;-0.0155002
0.173153;-0.0110886;-0.0131769;-0.0158821
0.173652;-0.0117252;-0.0132059;-0.0153729
0.174151;-0.0122215;-0.0134005;-0.0158821
0.17465;-0.0126163;-0.013533;-0.0155002
0.175149;-0.0131788;-0.0137358;-0.0158821
0.175648;-0.013689;-0.0137482;-0.0152774
0.176147;-0.0141262;-0.0144272;-0.0158821
0.176646;-0.0145566;-0.0144355;-0.0157548
0.177145;-0.0151022;-0.0144603;-0.0148636
0.177644;-0.015567;-0.014659;-0.0139088
0.178143;-0.0160457;-0.0147087;-0.0149591
0.178642;-0.0166004;-0.0150647;-0.0156912
0.179141;-0.017003;-0.0158968;-0.0156275
0.17964;-0.0174529;-0.0159672;-0.0145772
0.180139;-0.0179266;-0.016526;-0.0152456
0.180638;-0.0183718;-0.0166668;-0.0141953
0.181137;-0.0187961;-0.0166047;-0.0128903
0.181636;-0.019258;-0.0168572;-0.0125084
0.182135;-0.0197989;-0.0174741;-0.0152774
0.182634;-0.0201818;-0.0179957;-0.0123492
0.183133;-0.0207926;-0.0182606;-0.0122856
0.183632;-0.0212682;-0.0184014;-0.0134314
0.184131;-0.0217242;-0.0186415;-0.0143544
0.18463;-0.022186;-0.0185918;-0.0141953
0.185129;-0.0227141;-0.0186912;-0.0146409
0.185628;-0.0231521;-0.0190265;-0.0156593
0.186127;-0.0235342;-0.0192086;-0.0126357
0.186626;-0.0240956;-0.0204712;-0.0158821
0.187125;-0.024588;-0.0204505;-0.0158503
0.187624;-0.0249859;-0.0206368;-0.0158821
0.188123;-0.0254783;-0.0206989;-0.0158821
0.188622;-0.0260241;-0.0207362;-0.0158821
0.189121;-0.0264345;-0.0216802;-0.0158821
0.18962;-0.0270328;-0.0224171;-0.0158821
0.190119;-0.0276257;-0.022533;-0.0158503
0.190618;-0.028053;-0.0226075;-0.0158821
0.191117;-0.0284765;-0.0227317;-0.0158821
0.191616;-0.0290024;-0.0227607;-0.0158821
0.192115;-0.0295108;-0.0226737;-0.014991
0.192614;-0.0299035;-0.0228559;-0.0158821
0.193113;-0.0303583;-0.0229966;-0.015723
0.193612;-0.0309595;-0.0229966;-0.0158821
0.194111;-0.0314231;-0.0231788;-0.0158821
0.19461;-0.0318645;-0.0232408;-0.0154684
0.195109;-0.0324288;-0.0243627;-0.0158821
0.195608;-0.0329369;-0.0244206;-0.0158821
0.196107;-0.0333705;-0.0246607;-0.0158821
0.196606;-0.0339723;-0.024789;-0.0158821
0.197105;-0.034458;-0.0250623;-0.0158821
0.197604;-0.0349237;-0.0252237;-0.0158821
0.198103;-0.0353588;-0.0257578;-0.0158821
0.198602;-0.0359116;-0.0258241;-0.0155002
0.199101;-0.0363625;-0.0263292;-0.0152456
0.1996;-0.0368246;-0.0267101;-0.0158821
0.200099;-0.037314;-0.0267556;-0.0157867
0.200598;-0.0377936;-0.0269461;-0.0153729
0.201097;-0.0382584;-0.0270785;-0.015532
0.201596;-0.0387064;-0.0280844;-0.015723
0.202095;-0.0392936;-0.0278981;-0.0146409
0.202594;-0.039715;-0.028486;-0.0147682
0.203093;-0.040257;-0.0282541;-0.0150864
0.203592;-0.040828;-0.0285646;-0.0158185
0.204091;-0.0411942;-0.0287964;-0.0121264
0.20459;-0.0416622;-0.028962;-0.0152456
0.205089;-0.0422257;-0.0289206;-0.0148
0.205588;-0.04272;-0.0291524;-0.0158503
0.206087;-0.0432253;-0.0297403;-0.0158503
0.206586;-0.0437158;-0.0295374;-0.0151819
0.207085;-0.0442012;-0.029877;-0.0154684
0.207584;-0.0446809;-0.030262;-0.0158821
0.208083;-0.0451559;-0.0309202;-0.0158185
0.208582;-0.0456355;-0.0305932;-0.0151183
0.209081;-0.0460673;-0.0309865;-0.0150546
0.20958;-0.0465827;-0.0309865;-0.0158821
0.210079;-0.0471326;-0.0310486;-0.0156593
0.210578;-0.0475941;-0.0318102;-0.0155639
0.211077;-0.0480511;-0.0318723;-0.0145772
0.211576;-0.0485873;-0.031446;-0.0123174
0.212075;-0.0489286;-0.0328823;-0.0154684
0.212574;-0.0485743;-0.0324105;-0.0154047
0.213073;-0.0481082;-0.031715;-0.0148318
0.213572;-0.0475708;-0.0316737;-0.0158503
0.214071;-0.0470347;-0.0312142;-0.0157548
0.21457;-0.0465944;-0.0309865;-0.0158821
0.215069;-0.0461653;-0.0309161;-0.0156912
0.215568;-0.0456946;-0.0309865;-0.0158821
0.216067;-0.0451942;-0.0309782;-0.0158821
0.216566;-0.0448338;-0.030734;-0.0158821
0.217065;-0.0443493;-0.0304607;-0.0157867
0.217564;-0.0437642;-0.0299184;-0.015723
0.218063;-0.0433052;-0.0300177;-0.0158821
0.218562;-0.0428534;-0.0292394;-0.0158821
0.219061;-0.042194;-0.0289496;-0.0158821
0.21956;-0.0416957;-0.0288668;-0.0158821
0.220059;-0.0412296;-0.0288916;-0.0158821
0.220558;-0.040705;-0.0287426;-0.0157867
0.221057;-0.0401157;-0.0278071;-0.0156275
0.221556;-0.0398115;-0.0281382;-0.0158821
0.222055;-0.0393027;-0.0270413;-0.0158821
0.222554;-0.0387488;-0.0270579;-0.0158821
0.223053;-0.0383255;-0.0269378;-0.0158821
0.223552;-0.0379092;-0.026855;-0.0158821
0.224051;-0.0373248;-0.0267225;-0.0158821
0.22455;-0.0368491;-0.0267225;-0.0158821
0.225049;-0.0363536;-0.0265196;-0.0158821
0.225548;-0.0358505;-0.0265031;-0.0158821
0.226047;-0.0353154;-0.0255218;-0.0158821
0.226546;-0.0349039;-0.0253645;-0.0154684
0.227045;-0.0344126;-0.0252858;-0.0157867
0.227544;-0.0338548;-0.0250664;-0.0158821
0.228043;-0.0334474;-0.024876;-0.0155002
0.228542;-0.0330061;-0.0247559;-0.0155639
0.229041;-0.0324871;-0.0244868;-0.0158821
0.22954;-0.0319938;-0.0243503;-0.0158821
0.230039;-0.0315376;-0.023452;-0.0155639
0.230538;-0.0309407;-0.0235182;-0.0157548
0.231037;-0.0304797;-0.023096;-0.0156275
0.231536;-0.0300367;-0.0233319;-0.0158821
0.232035;-0.0296006;-0.0228104;-0.0158821
0.232534;-0.0290626;-0.0227234;-0.0158821
0.233033;-0.0285485;-0.0225785;-0.0158821
0.233532;-0.028053;-0.0223881;-0.0155639
0.234031;-0.0274927;-0.0225247;-0.0155957
0.23453;-0.0270604;-0.0219244;-0.0153729
0.235029;-0.0265934;-0.0215559;-0.0158185
0.235528;-0.0261296;-0.0207279;-0.0158821
0.236027;-0.0256263;-0.0207155;-0.0150546
0.236526;-0.0251231;-0.0207652;-0.0153729
0.237025;-0.0246443;-0.0206492;-0.0137497
0.237524;-0.0241262;-0.0200573;-0.0151819
0.238023;-0.0236625;-0.0198213;-0.0144499
0.238522;-0.0232231;-0.018981;-0.0149591
0.239021;-0.0227289;-0.0188609;-0.0155002
0.23952;-0.022181;-0.0186084;-0.0155957
0.240019;-0.0217755;-0.0185587;-0.0155639
0.240518;-0.021291;-0.0185587;-0.0147363
