t;vds;corrente;vg
0;-0.0018109;0.0162252;0
2e-05;-0.00197499;0.0191183;-0.0554795
4e-05;-0.00200168;0.0178356;-0.00128055
6e-05;-0.00222112;0.015938;-0.0214491
8e-05;-0.00195225;0.0115923;-0.343202
0.0001;-0.00188306;0.016205;-0.395354
0.00012;-0.00174764;0.012086;-0.397867
0.00014;-0.00195126;0.0135466;-0.399132
0.00016;-0.00188998;0.015764;-0.399244
0.00018;-0.000875795;0.0205506;-0.398796
0.0002;-0.00066426;0.0218535;-0.399148
0.00022;-0.000500172;0.0227113;-0.39902
0.00024;0.000632629;0.0289424;-0.398427
0.00026;0.00244353;0.036873;-0.398075
0.00028;0.00442445;0.0445931;-0.398796
0.0003;0.00627884;0.0516821;-0.399132
0.00032;0.00815202;0.0605473;-0.398875
0.00034;0.00998367;0.0727345;-0.398187
0.00036;0.0119339;0.0822187;-0.398539
0.00038;0.0139158;0.0915816;-0.399276
0.0004;0.0156585;0.0974973;-0.398956
0.00042;0.0177234;0.107524;-0.399099
0.00044;0.0194483;0.11698;-0.397947
0.00046;0.0214935;0.127427;-0.397851
0.00048;0.023419;0.131752;-0.398235
0.0005;0.0251726;0.14873;-0.398363
0.00052;0.0271753;0.15853;-0.398619
0.00054;0.0288726;0.162099;-0.398636
0.00056;0.0307863;0.170167;-0.399356
0.00058;0.0327178;0.180974;-0.398955
0.0006;0.0345642;0.19372;-0.398891
0.00062;0.036552;0.197791;-0.398859
0.00064;0.0384331;0.203083;-0.398876
0.00066;0.0403368;0.217245;-0.398812
0.00068;0.0422892;0.223249;-0.398363
0.0007;0.0439832;0.228865;-0.398875
0.00072;0.0458864;0.235958;-0.398667
0.00074;0.0455253;0.235133;-0.398603
0.00076;0.043682;0.228659;-0.398972
0.00078;0.0418393;0.225038;-0.399164
0.0008;0.0397617;0.21561;-0.398235
0.00082;0.0379872;0.20844;-0.398107
0.00084;0.0359629;0.197014;-0.397755
0.00086;0.0340828;0.188933;-0.397867
0.00088;0.0321642;0.180372;-0.3991
0.0009;0.0303621;0.171458;-0.398235
0.00092;0.0284346;0.16101;-0.398539
0.00094;0.0266059;0.156499;-0.399356
0.00096;0.0247861;0.143575;-0.399244
0.00098;0.0228328;0.134929;-0.39918
0.001;0.0210131;0.126954;-0.3991
0.00102;0.018963;0.118869;-0.398652
0.00104;0.0170918;0.112157;-0.398635
0.00106;0.0153471;0.102721;-0.398811
0.00108;0.0133939;0.0932203;-0.399132
0.0011;0.0114931;0.0803048;-0.398812
0.00112;0.00952104;0.0726414;-0.399148
0.00114;0.00758759;0.063145;-0.399068
0.00116;0.00582908;0.0519168;-0.399212
0.00118;0.00401719;0.0446498;-0.398988
0.0012;0.00199673;0.0354609;-0.39918
0.00122;0.000307418;0.0273927;-0.399003
0.00124;-0.00160727;0.0119322;-0.397818
0.00126;-0.00340038;0.007971;-0.398748
0.00128;-0.00553451;-0.00205952;-0.39926
0.0013;-0.00732268;-0.0100346;-0.399292
0.00132;-0.00922747;-0.0215986;-0.399228
0.00134;-0.0111036;-0.0307875;-0.399372
0.00136;-0.0130677;-0.0386776;-0.39918
0.00138;-0.0149725;-0.0503913;-0.398636
0.0014;-0.0168674;-0.0548584;-0.399004
0.00142;-0.0188533;-0.0662201;-0.399372
0.00144;-0.0206286;-0.079532;-0.399356
0.00146;-0.0225453;-0.0851603;-0.399276
0.00148;-0.0245786;-0.0934227;-0.399132
0.0015;-0.0263509;-0.0998318;-0.399244
0.00152;-0.0281964;-0.114321;-0.399372
0.00154;-0.0301891;-0.122385;-0.39934
0.00156;-0.0319793;-0.132602;-0.39926
0.00158;-0.0338871;-0.14063;-0.399308
0.0016;-0.0357434;-0.149017;-0.399372
0.00162;-0.0375415;-0.160213;-0.399372
0.00164;-0.0395806;-0.169483;-0.398923
0.00166;-0.0413345;-0.17518;-0.398988
0.00168;-0.0433389;-0.180894;-0.398684
0.0017;-0.0452044;-0.194141;-0.399372
0.00172;-0.0471525;-0.20231;-0.399324
0.00174;-0.0470094;-0.198567;-0.399372
0.00176;-0.045299;-0.190624;-0.399292
0.00178;-0.0432887;-0.18744;-0.399372
0.0018;-0.0415566;-0.173797;-0.399324
0.00182;-0.0396678;-0.16871;-0.399372
0.00184;-0.0375632;-0.157899;-0.399372
0.00186;-0.0357771;-0.148702;-0.399372
0.00188;-0.0339019;-0.142208;-0.399228
0.0019;-0.0319566;-0.132817;-0.39886
0.00192;-0.0300212;-0.122636;-0.399372
0.00194;-0.0281776;-0.114637;-0.399292
0.00196;-0.0261345;-0.103712;-0.39926
0.00198;-0.0244807;-0.0927388;-0.399372
0.002;-0.0224968;-0.0867059;-0.399372
0.00202;-0.0206553;-0.0783789;-0.399244
0.00204;-0.0186714;-0.0660421;-0.399292
0.00206;-0.0168041;-0.0594225;-0.398971
0.00208;-0.0150575;-0.0470087;-0.39918
0.0021;-0.0130499;-0.0384712;-0.399212
0.00212;-0.0110324;-0.0312609;-0.399276
0.00214;-0.00916617;-0.0187743;-0.398907
0.00216;-0.00725942;-0.00997791;-0.397963
0.00218;-0.00540305;0.000214449;-0.398299
0.0022;-0.00350714;0.00522769;-0.398763
0.00222;-0.00159541;0.0144085;-0.399164
0.00224;0.000257994;0.02558;-0.399324
0.00226;0.00203232;0.038366;-0.399372
0.00228;0.00397963;0.0434521;-0.399324
0.0023;0.00573221;0.0522567;-0.398651
0.00232;0.00780605;0.0640716;-0.399068
0.00234;0.00973158;0.0727425;-0.39902
0.00236;0.0116186;0.0831413;-0.399067
0.00238;0.0134423;0.0920388;-0.399132
0.0024;0.0153204;0.100698;-0.399356
0.00242;0.0171481;0.110846;-0.399324
0.00244;0.0190579;0.11768;-0.399308
0.00246;0.0210398;0.130004;-0.399308
0.00248;0.022743;0.140905;-0.3991
0.0025;0.0247289;0.147136;-0.399196
0.00252;0.0266712;0.156438;-0.39918
0.00254;0.0283605;0.167347;-0.399212
0.00256;0.0302307;0.174715;-0.398795
0.00258;0.0322066;0.184575;-0.399068
0.0026;0.0341154;0.194744;-0.399004
0.00262;0.036029;0.202925;-0.398988
0.00264;0.037933;0.20946;-0.399035
0.00266;0.0398732;0.215998;-0.398154
0.00268;0.041714;0.224904;-0.398828
0.0027;0.0435425;0.230795;-0.399164
0.00272;0.0455078;0.239454;-0.399372
0.00274;0.0458564;0.239418;-0.399196
0.00276;0.0439291;0.235363;-0.398811
0.00278;0.0421221;0.227121;-0.398443
0.0028;0.0401135;0.220676;-0.398971
0.00282;0.0383855;0.214161;-0.399228
0.00284;0.0363661;0.204321;-0.39934
0.00286;0.0343575;0.195152;-0.398027
0.00288;0.0327058;0.188415;-0.395721
0.0029;0.0306912;0.180303;-0.394857
0.00292;0.0287489;0.169799;-0.397435
0.00294;0.0270151;0.15889;-0.397306
0.00296;0.0249946;0.153569;-0.397706
0.00298;0.0231896;0.141067;-0.397739
0.003;0.0214213;0.132137;-0.398555
0.00302;0.0194839;0.119683;-0.39894
0.00304;0.0175544;0.114346;-0.398924
0.00306;0.015617;0.0997994;-0.398763
0.00308;0.013813;0.093811;-0.398123
0.0031;0.011841;0.0850186;-0.398315
0.00312;0.00990358;0.0777315;-0.398795
0.00314;0.0080848;0.0663577;-0.39934
0.00316;0.00611574;0.0594346;-0.399244
0.00318;0.0044195;0.0468104;-0.398587
0.0032;0.00238027;0.0366869;-0.39886
0.00322;0.000592101;0.0287725;-0.397899
0.00324;-0.00128898;0.0190899;-0.398539
0.00326;-0.00311174;0.00558375;-0.399148
0.00328;-0.00494241;-0.00338667;-0.399228
0.0033;-0.00699055;-0.0123126;-0.399084
0.00332;-0.00900606;-0.0194217;-0.399276
0.00334;-0.0106795;-0.0287766;-0.3991
0.00336;-0.0126674;-0.0390053;-0.399372
0.00338;-0.0146443;-0.0445365;-0.39926
0.0034;-0.016473;-0.0575531;-0.39878
0.00342;-0.018448;-0.0622589;-0.399164
0.00344;-0.0203271;-0.0751662;-0.398923
0.00346;-0.0222655;-0.0879077;-0.398827
0.00348;-0.0240704;-0.0919053;-0.399324
0.0035;-0.0259268;-0.105606;-0.399372
0.00352;-0.0278978;-0.109636;-0.399228
0.00354;-0.0297482;-0.121487;-0.398603
0.00356;-0.031663;-0.13064;-0.399372
0.00358;-0.0336162;-0.140974;-0.399244
0.0036;-0.0353984;-0.149454;-0.399324
0.00362;-0.0373379;-0.159614;-0.399228
0.00364;-0.0391814;-0.170798;-0.399276
0.00366;-0.0411377;-0.17635;-0.399228
0.00368;-0.0428546;-0.183693;-0.399372
0.0037;-0.0448444;-0.196795;-0.399372
0.00372;-0.0467255;-0.205065;-0.399067
0.00374;-0.0473286;-0.204038;-0.399372
0.00376;-0.0455807;-0.198814;-0.399148
0.00378;-0.0437819;-0.188156;-0.399372
0.0038;-0.0418798;-0.181488;-0.399372
0.00382;-0.0399613;-0.17285;-0.399372
0.00384;-0.0380317;-0.164438;-0.399164
0.00386;-0.036044;-0.154108;-0.399372
0.00388;-0.0342586;-0.143373;-0.39934
0.0039;-0.0322393;-0.135653;-0.39926
0.00392;-0.0304076;-0.125295;-0.39934
0.00394;-0.0286382;-0.117595;-0.399148
0.00396;-0.0267136;-0.106986;-0.399324
0.00398;-0.0248167;-0.09267;-0.398971
0.004;-0.0228329;-0.0880412;-0.398956
0.00402;-0.0210674;-0.0759916;-0.39934
0.00404;-0.019048;-0.0710998;-0.399004
0.00406;-0.0173033;-0.0623843;-0.399372
0.00408;-0.0154509;-0.0521717;-0.399244
0.0041;-0.0135501;-0.0425902;-0.399372
0.00412;-0.0114367;-0.0319609;-0.399372
0.00414;-0.00952105;-0.0226911;-0.399356
0.00416;-0.00775959;-0.010249;-0.399356
0.00418;-0.00592398;0.000922534;-0.398811
0.0042;-0.00389956;0.000586699;-0.399372
0.00422;-0.00201552;0.0123449;-0.399356
0.00424;-0.000186823;0.022865;-0.39918
0.00426;0.00177235;0.0334377;-0.399292
0.00428;0.00354272;0.0455804;-0.399324
0.0043;0.00539909;0.0524347;-0.399356
0.00432;0.00732762;0.0620404;-0.399052
0.00434;0.00916816;0.0706547;-0.398779
0.00436;0.0110393;0.080054;-0.3991
0.00438;0.013123;0.092322;-0.398395
0.0044;0.0148825;0.0991683;-0.398523
0.00442;0.0167616;0.109952;-0.399196
0.00444;0.0185261;0.12086;-0.399244
0.00446;0.0205545;0.125473;-0.399324
0.00448;0.0224712;0.136369;-0.39934
0.0045;0.0242968;0.14973;-0.399148
0.00452;0.0262036;0.156353;-0.398939
0.00454;0.0280155;0.165688;-0.399244
0.00456;0.0298165;0.174877;-0.398539
0.00458;0.0318063;0.181788;-0.398812
0.0046;0.0336123;0.195031;-0.39918
0.00462;0.0355131;0.204151;-0.398635
0.00464;0.0376295;0.211798;-0.399148
0.00466;0.0393365;0.220053;-0.399164
0.00468;0.0413463;0.221044;-0.399372
0.0047;0.0432025;0.231697;-0.399308
0.00472;0.0451203;0.236763;-0.399003
0.00474;0.045987;0.237229;-0.398924
0.00476;0.0443274;0.237811;-0.399099
0.00478;0.0425146;0.227664;-0.399196
0.0048;0.0405465;0.222723;-0.39918
0.00482;0.0386782;0.214683;-0.399324
0.00484;0.0367437;0.20515;-0.399003
0.00486;0.0347924;0.198345;-0.399372
0.00488;0.0330053;0.188035;-0.399196
0.0049;0.0311934;0.183095;-0.399196
0.00492;0.0291235;0.172453;-0.398731
0.00494;0.0274135;0.162536;-0.399036
0.00496;0.0254277;0.15344;-0.39926
0.00498;0.0236078;0.145372;-0.39934
0.005;0.0217446;0.133994;-0.39926
0.00502;0.0198259;0.124198;-0.399356
0.00504;0.0179043;0.111748;-0.399372
0.00506;0.0160173;0.105096;-0.399324
0.00508;0.0141718;0.0931475;-0.399372
0.0051;0.01218;0.0847274;-0.399308
0.00512;0.0101468;0.0781806;-0.399372
0.00514;0.00834575;0.0670414;-0.399004
0.00516;0.0065912;0.0611704;-0.399372
0.00518;0.00465971;0.0489711;-0.399244
0.0052;0.00274996;0.0389487;-0.399228
0.00522;0.000951909;0.029343;-0.398988
0.00524;-0.000873819;0.020239;-0.399276
0.00526;-0.00279444;0.0119646;-0.399372
0.00528;-0.00461621;-0.00223755;-0.399035
0.0053;-0.00667325;-0.00861435;-0.399356
0.00532;-0.00851182;-0.0153189;-0.3991
0.00534;-0.0103682;-0.0267737;-0.399372
0.00536;-0.0123659;-0.0342187;-0.399356
0.00538;-0.0142588;-0.0471584;-0.399292
0.0054;-0.0160282;-0.0559832;-0.399372
0.00542;-0.0178657;-0.0638004;-0.399356
0.00544;-0.0198911;-0.074535;-0.399372
0.00546;-0.0217791;-0.0858118;-0.399372
0.00548;-0.0238352;-0.091525;-0.399372
0.0055;-0.0255028;-0.102968;-0.399372
0.00552;-0.0275054;-0.112141;-0.399372
0.00554;-0.029518;-0.117166;-0.39934
0.00556;-0.0311787;-0.128754;-0.399372
0.00558;-0.0330271;-0.136199;-0.399372
0.0056;-0.0349389;-0.147872;-0.399372
0.00562;-0.036815;-0.15726;-0.399228
0.00564;-0.0387623;-0.166667;-0.399372
0.00566;-0.0406887;-0.175747;-0.399356
0.00568;-0.0425848;-0.182524;-0.399372
0.0057;-0.0445764;-0.190034;-0.399372
0.00572;-0.0464893;-0.201493;-0.399372
0.00574;-0.047453;-0.207125;-0.39934
0.00576;-0.0459029;-0.199437;-0.399228
0.00578;-0.0440329;-0.190908;-0.399372
0.0058;-0.042126;-0.184054;-0.39934
0.00582;-0.0403408;-0.175395;-0.399372
0.00584;-0.0384409;-0.164494;-0.399372
0.00586;-0.0365549;-0.158332;-0.399372
0.00588;-0.0346076;-0.145894;-0.399372
0.0059;-0.0327048;-0.13401;-0.399196
0.00592;-0.0308613;-0.129349;-0.399372
0.00594;-0.0289722;-0.119557;-0.399308
0.00596;-0.0270704;-0.104542;-0.399356
0.00598;-0.0251083;-0.100588;-0.398939
0.006;-0.0232845;-0.0906509;-0.398491
0.00602;-0.0213897;-0.078735;-0.399324
0.00604;-0.0195551;-0.0692102;-0.399372
0.00606;-0.017676;-0.06376;-0.399372
0.00608;-0.0157732;-0.0521555;-0.399324
0.0061;-0.0138565;-0.0401747;-0.3991
0.00612;-0.0119112;-0.0321227;-0.399292
0.00614;-0.0100143;-0.0238887;-0.399372
0.00616;-0.00810357;-0.0131744;-0.398988
0.00618;-0.00624523;-0.00511844;-0.399228
0.0062;-0.00406266;0.007445;-0.399276
0.00622;-0.00242376;0.0121629;-0.399372
0.00624;-0.000615824;0.0243136;-0.399372
0.00626;0.00130084;0.0307349;-0.39934
0.00628;0.00314041;0.0429423;-0.399372
0.0063;0.00498393;0.051415;-0.39926
0.00632;0.00689862;0.0643224;-0.399228
0.00634;0.00880045;0.0693801;-0.399356
0.00636;0.0106084;0.0748587;-0.399372
0.00638;0.0126387;0.0893562;-0.398651
0.0064;0.0145326;0.102049;-0.399148
0.00642;0.0163544;0.108839;-0.398859
0.00644;0.0183037;0.11855;-0.399148
0.00646;0.0201748;0.130846;-0.399356
0.00648;0.0220381;0.136005;-0.399356
0.0065;0.0239063;0.147298;-0.399083
0.00652;0.025818;0.152295;-0.399212
0.00654;0.0277159;0.165057;-0.398155
0.00656;0.0295219;0.175366;-0.398731
0.00658;0.0315444;0.178373;-0.399132
0.0066;0.0332337;0.195848;-0.398603
0.00662;0.035181;0.202168;-0.398923
0.00664;0.0371601;0.208788;-0.398683
0.00666;0.0389857;0.217783;-0.397915
0.00668;0.040944;0.225936;-0.398795
0.0067;0.0428368;0.231896;-0.399068
0.00672;0.0447148;0.234364;-0.399196
0.00674;0.0463105;0.240182;-0.398715
0.00676;0.0447277;0.238572;-0.397643
0.00678;0.0428389;0.231665;-0.398331
0.0068;0.0410318;0.222808;-0.398075
0.00682;0.039053;0.217467;-0.398667
0.00684;0.0371125;0.206243;-0.398523
0.00686;0.035182;0.203107;-0.398443
0.00688;0.033121;0.191482;-0.398667
0.0069;0.0315415;0.183863;-0.398395
0.00692;0.0294479;0.171243;-0.399084
0.00694;0.0277368;0.162471;-0.399196
0.00696;0.0257084;0.158251;-0.39918
0.00698;0.023942;0.148629;-0.398459
0.007;0.0220224;0.138594;-0.397739
0.00702;0.0202095;0.126424;-0.397803
0.00704;0.0181821;0.11912;-0.398331
0.00706;0.0164443;0.105234;-0.399228
0.00708;0.0144555;0.100868;-0.399356
0.0071;0.0126219;0.091088;-0.398844
0.00712;0.0106588;0.0805315;-0.398443
0.00714;0.00875695;0.0716096;-0.398475
0.00716;0.00688182;0.0556271;-0.398555
0.00718;0.00508278;0.0531953;-0.397915
0.0072;0.00314931;0.0430839;-0.398235
0.00722;0.00125537;0.0335915;-0.39902
0.00724;-0.000491276;0.0221934;-0.399004
0.00726;-0.0024801;0.0120738;-0.397963
0.00728;-0.00427717;0.00401788;-0.398652
0.0073;-0.00633222;-0.00496873;-0.399132
0.00732;-0.00796124;-0.0140929;-0.399164
0.00734;-0.0101329;-0.0284043;-0.399116
0.00736;-0.0120595;-0.0324383;-0.39934
0.00738;-0.0138535;-0.0417123;-0.399372
0.0074;-0.0157524;-0.0507919;-0.399372
0.00742;-0.0175781;-0.0645935;-0.398699
0.00744;-0.0194997;-0.0748871;-0.398779
0.00746;-0.0213334;-0.0825222;-0.398443
0.00748;-0.0233934;-0.0880493;-0.398315
0.0075;-0.0251064;-0.101665;-0.398267
0.00752;-0.0269845;-0.107584;-0.398155
0.00754;-0.0291493;-0.1184;-0.399004
0.00756;-0.0307803;-0.131145;-0.39934
0.00758;-0.0326159;-0.138902;-0.399084
0.0076;-0.0346888;-0.147249;-0.399084
0.00762;-0.0364492;-0.159436;-0.3991
0.00764;-0.038441;-0.162095;-0.399292
0.00766;-0.0401973;-0.168686;-0.399324
0.00768;-0.0421775;-0.180566;-0.398988
0.0077;-0.0441107;-0.190204;-0.398507
0.00772;-0.0459268;-0.201286;-0.399308
0.00774;-0.0474362;-0.206215;-0.39918
0.00776;-0.0461907;-0.199486;-0.39902
0.00778;-0.0443827;-0.193396;-0.399228
0.0078;-0.0424878;-0.185405;-0.399196
0.00782;-0.0404851;-0.178126;-0.399372
0.00784;-0.0386793;-0.165303;-0.398859
0.00786;-0.036891;-0.156159;-0.39894
0.00788;-0.0350199;-0.148686;-0.399004
0.0079;-0.0331062;-0.139295;-0.397819
0.00792;-0.0309957;-0.128155;-0.398411
0.00794;-0.0292511;-0.119792;-0.398939
0.00796;-0.027458;-0.111263;-0.399164
0.00798;-0.0254583;-0.102668;-0.399372
0.008;-0.0234952;-0.0920874;-0.399116
0.00802;-0.0217426;-0.0855568;-0.399356
0.00804;-0.0197834;-0.0731391;-0.398923
0.00806;-0.0179755;-0.0668635;-0.398459
0.00808;-0.0160391;-0.0531671;-0.398219
0.0081;-0.0141857;-0.0454509;-0.398683
0.00812;-0.0123866;-0.0339638;-0.397914
0.00814;-0.0103365;-0.0251957;-0.398011
0.00816;-0.00840209;-0.0170749;-0.398987
0.00818;-0.00657341;-0.00887734;-0.399148
0.0082;-0.00463203;0.000311557;-0.399164
0.00822;-0.00278851;0.0105687;-0.39894
0.00824;-0.000883703;0.0172813;-0.399164
0.00826;0.00112984;0.0310788;-0.398507
0.00828;0.00283497;0.0418336;-0.398539
0.0083;0.00470715;0.0497237;-0.398491
0.00832;0.00653288;0.0588964;-0.398235
0.00834;0.00843472;0.0710067;-0.397931
0.00836;0.0102248;0.0811545;-0.399004
0.00838;0.0121682;0.0856823;-0.3991
0.0084;0.0142598;0.0978533;-0.399244
0.00842;0.0161953;0.102336;-0.39817
0.00844;0.0179695;0.116134;-0.398795
0.00846;0.0198872;0.126622;-0.398571
0.00848;0.0217327;0.135046;-0.398715
0.0085;0.02351;0.145493;-0.398283
0.00852;0.0254662;0.15376;-0.398603
0.00854;0.0272217;0.160917;-0.398971
0.00856;0.0290613;0.173505;-0.398619
0.00858;0.0310334;0.180655;-0.39902
0.0086;0.0328551;0.191316;-0.398571
0.00862;0.0348638;0.198406;-0.398924
0.00864;0.0367388;0.207315;-0.39894
0.00866;0.0386605;0.214121;-0.398939
0.00868;0.0405168;0.223067;-0.398796
0.0087;0.0424444;0.226875;-0.399164
0.00872;0.0445091;0.236767;-0.399004
0.00874;0.0460979;0.239976;-0.399116
0.00876;0.0451192;0.234663;-0.398892
0.00878;0.0431938;0.230941;-0.398779
0.0088;0.0414795;0.22382;-0.399132
0.00882;0.0395077;0.218495;-0.398187
0.00884;0.0375138;0.211564;-0.398219
0.00886;0.0355992;0.203783;-0.397963
0.00888;0.0336776;0.194052;-0.398395
0.0089;0.0317342;0.186178;-0.396553
0.00892;0.0298284;0.174452;-0.397979
0.00894;0.0280106;0.166453;-0.398427
0.00896;0.026083;0.158397;-0.397899
0.00898;0.0243255;0.147638;-0.399003
0.009;0.0224603;0.137652;-0.398315
0.00902;0.0206177;0.130648;-0.397947
0.00904;0.0185646;0.120431;-0.398875
0.00906;0.0168022;0.105667;-0.399116
0.00908;0.0148815;0.103554;-0.398235
0.0091;0.0131567;0.0924556;-0.398059
0.00912;0.0110917;0.0813124;-0.398507
0.00914;0.00917309;0.0723541;-0.397931
0.00916;0.00733553;0.0633594;-0.398475
0.00918;0.00544357;0.0549231;-0.398923
0.0092;0.00362872;0.0429666;-0.399036
0.00922;0.00169426;0.0332071;-0.397819
0.00924;-0.000131468;0.0248315;-0.398715
0.00926;-0.0021282;0.0136599;-0.398715
0.00928;-0.0039312;0.00696754;-0.398987
0.0093;-0.00593683;-0.00180865;-0.398971
0.00932;-0.00777541;-0.0109935;-0.398299
0.00934;-0.00963274;-0.0250904;-0.398748
0.00936;-0.0115939;-0.0335794;-0.399084
0.00938;-0.0136282;-0.0400897;-0.398539
0.0094;-0.0153175;-0.0522405;-0.399148
0.00942;-0.0172618;-0.0654877;-0.399052
0.00944;-0.0192734;-0.0708651;-0.399164
0.00946;-0.0210774;-0.0783263;-0.398828
0.00948;-0.0230247;-0.0880534;-0.39902
0.0095;-0.0246933;-0.095636;-0.398988
0.00952;-0.0268304;-0.110251;-0.398859
0.00954;-0.0286462;-0.118639;-0.398619
0.00956;-0.0304323;-0.128948;-0.399212
0.00958;-0.0323391;-0.136944;-0.399324
0.0096;-0.0342667;-0.144356;-0.3991
0.00962;-0.0361456;-0.153962;-0.398587
0.00964;-0.0380644;-0.165761;-0.399212
0.00966;-0.0398218;-0.173254;-0.399308
0.00968;-0.0416912;-0.181015;-0.39918
0.0097;-0.0436937;-0.191984;-0.399067
0.00972;-0.0455602;-0.196811;-0.399292
0.00974;-0.0474283;-0.20511;-0.399212
0.00976;-0.0466614;-0.198956;-0.399276
0.00978;-0.0448681;-0.195622;-0.399132
0.0098;-0.0427589;-0.185959;-0.399068
0.00982;-0.0410457;-0.176204;-0.399372
0.00984;-0.039141;-0.169334;-0.399132
0.00986;-0.0372736;-0.159861;-0.399324
0.00988;-0.0353185;-0.149422;-0.399372
0.0099;-0.0335194;-0.13804;-0.399132
0.00992;-0.0314742;-0.132703;-0.399083
0.00994;-0.0297227;-0.120447;-0.399068
0.00996;-0.0276567;-0.115721;-0.399228
0.00998;-0.0258102;-0.108369;-0.399148
0.01;-0.0241091;-0.0921561;-0.398475
0.01002;-0.0221785;-0.0840192;-0.398603
0.01004;-0.0202134;-0.0754575;-0.399228
0.01006;-0.0184243;-0.0664548;-0.398363
0.01008;-0.0164325;-0.0558092;-0.398603
0.0101;-0.014587;-0.0490601;-0.398523
0.01012;-0.0126683;-0.0405065;-0.39926
0.01014;-0.0106143;-0.0280078;-0.399148
0.01016;-0.0087619;-0.0223026;-0.398907
0.01018;-0.00689269;-0.00899469;-0.398635
0.0102;-0.0051668;0.00142426;-0.3987
0.01022;-0.00302575;0.00911203;-0.399372
0.01024;-0.00125834;0.0223795;-0.39934
0.01026;0.000563435;0.0322886;-0.398555
0.01028;0.0024801;0.0382325;-0.398747
0.0103;0.00438788;0.0473041;-0.39918
0.01032;0.00613057;0.0559508;-0.399164
0.01034;0.00794641;0.0660744;-0.39886
0.01036;0.00982253;0.0761413;-0.399372
0.01038;0.0118815;0.0888059;-0.39902
0.0104;0.0136796;0.0972868;-0.398859
0.01042;0.015532;0.103947;-0.399132
0.01044;0.0175603;0.117283;-0.39934
0.01046;0.0195067;0.118728;-0.398571
