t;vds;corrente;vg
0.00998;0.00125636;0.0838826;0.373739
0.01996;0.00334206;0.0924152;0.381855
0.02994;0.00509563;0.0902342;0.381733
0.03992;0.00700538;0.103967;0.381871
0.0499;0.00898727;0.113261;0.382224
0.05988;0.0109741;0.118881;0.382285
0.06986;0.0127217;0.123518;0.382331
0.07984;0.0148133;0.128532;0.382454
0.08982;0.0167765;0.133771;0.382377
0.0998;0.0185291;0.142321;0.382484
0.10978;0.0205525;0.151405;0.382408
0.11976;0.0223931;0.155046;0.382484
0.12974;0.0242671;0.163046;0.382285
0.13972;0.0262817;0.174638;0.382086
0.1497;0.028052;0.177924;0.382116
0.15968;0.030029;0.181776;0.382285
0.16966;0.0318952;0.186935;0.382301
0.17964;0.0337506;0.197272;0.382285
0.18962;0.035688;0.199895;0.381411
0.1996;0.0375544;0.212648;0.382132
0.20958;0.0396113;0.214805;0.382147
0.21956;0.0415321;0.225551;0.382484
0.22954;0.0433883;0.225758;0.382484
0.23952;0.0453349;0.230888;0.3823
0.2495;0.0470468;0.235687;0.382362
0.25948;0.0459166;0.233069;0.382469
0.26946;0.0441475;0.231876;0.382392
0.27944;0.0423108;0.227134;0.382484
0.28942;0.040324;0.216812;0.382331
0.2994;0.0384283;0.208808;0.38204
0.30938;0.0364798;0.204547;0.38181
0.31936;0.0344654;0.197167;0.381963
0.32934;0.032615;0.190175;0.381993
0.33932;0.0306291;0.186307;0.382362
0.3493;0.0287263;0.175771;0.382331
0.35928;0.026946;0.179307;0.382454
0.36926;0.0250481;0.164373;0.382224
0.37924;0.0231749;0.157988;0.382132
0.38922;0.0213323;0.149167;0.38227
0.3992;0.0193158;0.147807;0.382484
0.40918;0.0173992;0.137522;0.382025
0.41916;0.0154796;0.133699;0.382316
0.42914;0.0136875;0.124615;0.382346
0.43912;0.0116611;0.122479;0.381672
0.4491;0.00966042;0.113188;0.382484
0.45908;0.00772697;0.106075;0.382484
0.46906;0.00588345;0.100714;0.381671
0.47904;0.00396777;0.090303;0.382408
0.48902;0.00209163;0.0883406;0.382484
0.499;0.000203627;0.081454;0.382347
0.50898;-0.00173083;0.0705819;0.382484
0.51896;-0.00362279;0.0680247;0.382377
0.52894;-0.00569267;0.0631572;0.382469
0.53892;-0.00747293;0.0547976;0.382423
0.5489;-0.00937869;0.050363;0.382484
0.55888;-0.0113804;0.0413157;0.382484
0.56886;-0.0134216;0.0339031;0.382116
0.57884;-0.0152305;0.0306216;0.38227
0.58882;-0.0171462;0.0310384;0.382408
0.5988;-0.0191063;0.0190373;0.38227
0.60878;-0.0210368;0.0117663;0.382484
0.61876;-0.0229634;0.00642131;0.382484
0.62874;-0.024805;0.00335025;0.382377
0.63872;-0.0268403;-0.00649819;0.381733
0.6487;-0.0289131;-0.012523;0.382484
0.65868;-0.0307033;-0.0125432;0.382423
0.66866;-0.0326238;-0.022776;0.381733
0.67864;-0.034582;-0.028113;0.381779
0.68862;-0.0364699;-0.0340325;0.382377
0.6986;-0.0383827;-0.0392804;0.382423
0.70858;-0.0402715;-0.0521838;0.381855
0.71856;-0.0422387;-0.0524671;0.381734
0.72854;-0.044176;-0.0503833;0.382484
0.73852;-0.0460712;-0.0546682;0.382224
0.7485;-0.047699;-0.0678466;0.382347
0.75848;-0.0470401;-0.0639219;0.382178
0.76846;-0.0452763;-0.0550971;0.382362
0.77844;-0.0433144;-0.0560722;0.382423
0.78842;-0.0413402;-0.046244;0.38158
0.7984;-0.0394731;-0.043007;0.381365
0.80838;-0.0374486;-0.037577;0.382024
0.81836;-0.0355992;-0.0306459;0.381703
0.82834;-0.0337349;-0.0208298;0.382484
0.83832;-0.0318222;-0.0155293;0.382392
0.8483;-0.0299273;-0.0168888;0.381886
0.85828;-0.0279167;-0.0123126;0.382377
0.86826;-0.0259368;-0.00195027;0.382454
0.87824;-0.0239124;0.00554734;0.382454
0.88822;-0.0221785;0.0128062;0.382484
0.8982;-0.0202599;0.0177102;0.382208
0.90818;-0.0182464;0.0218049;0.382116
0.91816;-0.0163158;0.0286875;0.38204
0.92814;-0.0144585;0.0356146;0.382484
0.93812;-0.0126624;0.040025;0.382362
0.9481;-0.0106252;0.0398186;0.382484
0.95808;-0.00860078;0.0507393;0.382162
0.96806;-0.00659417;0.0617207;0.38207
0.97804;-0.00483269;0.0694571;0.382055
0.98802;-0.00287747;0.0780147;0.381794
0.998;-0.00093115;0.0739646;0.382285
1.00798;0.00107053;0.076376;0.381871
1.01796;0.00295161;0.0911285;0.382239
1.02794;0.00486136;0.100111;0.382086
1.03792;0.00652992;0.0947781;0.382484
1.0479;0.00854345;0.116915;0.381993
1.05788;0.0107023;0.113022;0.382055
1.06786;0.0124934;0.115248;0.381626
1.07784;0.014246;0.128612;0.382009
1.08782;0.016218;0.143818;0.382362
1.0978;0.0181168;0.122689;0.380981
1.10778;0.020254;0.139566;0.38029
1.11776;0.0221499;0.171369;0.382162
1.12774;0.0239202;0.153897;0.382377
1.13772;0.025817;0.151028;0.380674
1.1477;0.0278188;0.184138;0.382116
1.15768;0.0296949;0.185203;0.382469
1.16766;0.0313329;0.168633;0.38207
1.17764;0.0332969;0.197208;0.381381
1.18762;0.0355724;0.201274;0.382331
1.1976;0.0372431;0.197867;0.382086
1.20758;0.0392861;0.212778;0.382239
1.21756;0.0411841;0.219357;0.381411
1.22754;0.0430819;0.224686;0.380553
1.23752;0.0450549;0.230116;0.381427
1.2475;0.0469152;0.231329;0.381013
1.25748;0.0464586;0.230415;0.38181
1.26746;0.0445241;0.226061;0.382117
1.27744;0.0425759;0.226239;0.382484
1.28742;0.0405632;0.217071;0.382438
1.2974;0.0388226;0.205389;0.38204
1.30738;0.0369968;0.206575;0.381795
1.31736;0.0350159;0.197879;0.382285
1.32734;0.0327492;0.189884;0.381305
1.33732;0.0309295;0.185785;0.382438
1.3473;0.0291473;0.176455;0.382454
1.35728;0.0273957;0.166987;0.38227
1.36726;0.025486;0.159885;0.3823
1.37724;0.0233577;0.160553;0.381549
1.38722;0.0214539;0.157061;0.382178
1.3972;0.0196173;0.138716;0.382377
1.40718;0.0177837;0.135001;0.382239
1.41716;0.016047;0.136098;0.382484
1.42714;0.0138486;0.130017;0.382132
1.43712;0.0115178;0.117473;0.38204
1.4471;0.00998759;0.107645;0.382484
1.45708;0.00818661;0.100572;0.382484
1.46706;0.00634309;0.0994677;0.38207
1.47704;0.0043859;0.0986867;0.382438
1.48702;0.00222606;0.0872157;0.382147
1.497;0.000463598;0.0820002;0.382423
1.50698;-0.00120595;0.0723298;0.382346
1.51696;-0.00318588;0.0702582;0.381871
1.52694;-0.00523204;0.0654999;0.382408
1.53692;-0.00733158;0.0585202;0.381656
1.5469;-0.00919486;0.0513827;0.381855
1.55688;-0.0111105;0.0438851;0.382086
1.56686;-0.0130232;0.0387626;0.382423
1.57684;-0.0149557;0.0321147;0.382055
1.58682;-0.0167962;0.0315361;0.382178
1.5968;-0.018878;0.0157114;0.381549
1.60678;-0.020771;0.0172287;0.382316
1.61676;-0.0225582;0.00868718;0.382178
1.62674;-0.0246013;0.00518317;0.382484
1.63672;-0.0264953;-0.000610976;0.381994
1.6467;-0.0284327;-0.00901492;0.381933
1.65668;-0.0303651;-0.0150437;0.381334
1.66666;-0.0322027;-0.0190495;0.382071
1.67664;-0.0341036;-0.0212708;0.382423
1.68662;-0.0361001;-0.0344453;0.381319
1.6966;-0.03801;-0.0316574;0.381794
1.70658;-0.0399246;-0.039588;0.381978
1.71656;-0.0418751;-0.0504075;0.381626
1.72654;-0.0438538;-0.0482752;0.381549
1.73652;-0.0456107;-0.0501081;0.382377
1.7465;-0.0476318;-0.0598514;0.382316
1.75648;-0.0474551;-0.0660623;0.382101
1.76646;-0.0456083;-0.0537254;0.382484
1.77644;-0.0435872;-0.0485139;0.382239
1.78642;-0.0417286;-0.046596;0.381779
1.7964;-0.0398517;-0.0394464;0.381442
1.80638;-0.0379358;-0.0333609;0.380813
1.81636;-0.0359758;-0.027765;0.380798
1.82634;-0.0340057;-0.0249691;0.381672
1.83632;-0.0321612;-0.0186004;0.381565
1.8463;-0.0302742;-0.0141172;0.382469
1.85628;-0.0284168;-0.00556351;0.382362
1.86626;-0.0263727;0.0015942;0.382346
1.87624;-0.0244807;0.00750164;0.382178
1.88622;-0.0225383;0.0129964;0.382055
1.8962;-0.020595;0.0154241;0.381411
1.90618;-0.0186882;0.0246454;0.382178
1.91616;-0.0167221;0.0270124;0.381258
1.92614;-0.0148005;0.0342308;0.381611
1.93612;-0.0129481;0.0361973;0.382116
1.9461;-0.0109573;0.0482954;0.381948
1.95608;-0.00899715;0.0523699;0.382193
1.96606;-0.00710917;0.0579698;0.381686
1.97604;-0.00517569;0.0620242;0.38112
1.98602;-0.00314733;0.0702016;0.382009
1.996;-0.00138289;0.0749355;0.382055
2.00598;0.000579251;0.082421;0.382408
2.01596;0.00245836;0.0866736;0.382484
2.02594;0.00448376;0.096692;0.382117
2.03592;0.00623238;0.102624;0.382377
2.0459;0.00821429;0.105238;0.382362
2.05588;0.0100519;0.113739;0.3823
2.06586;0.0120061;0.119448;0.382132
2.07584;0.0140068;0.12667;0.382101
2.08582;0.016047;0.135997;0.382346
2.0958;0.0179013;0.141767;0.382392
2.10578;0.019728;0.149806;0.382316
2.11576;0.0217139;0.151943;0.382392
2.12574;0.0236641;0.157842;0.38227
2.13572;0.0255492;0.158918;0.382285
2.1457;0.0274639;0.172955;0.382086
2.15568;0.0292758;0.174335;0.381978
2.16566;0.0311599;0.1829;0.382377
2.17564;0.0330489;0.18914;0.382316
2.18562;0.0350149;0.199878;0.382316
2.1956;0.0370521;0.203803;0.3823
2.20558;0.0388078;0.206907;0.382347
2.21556;0.04075;0.214287;0.382484
2.22554;0.0427686;0.218823;0.382484
2.23552;0.0445813;0.223658;0.382408
2.2455;0.046519;0.232442;0.382454
2.25548;0.0467633;0.232806;0.382392
2.26546;0.0449087;0.228416;0.382454
2.27544;0.0429754;0.222703;0.381932
2.28542;0.0410526;0.217236;0.381626
2.2954;0.0390747;0.207392;0.382484
2.30538;0.0372756;0.199753;0.382346
2.31536;0.0352493;0.200137;0.382408
2.32534;0.0333692;0.194764;0.381917
2.33532;0.0314921;0.184361;0.381242
2.3453;0.0294874;0.175172;0.382362
2.35528;0.0275826;0.17041;0.38227
2.36526;0.0257816;0.164644;0.382346
2.37524;0.0237651;0.158587;0.381871
2.38522;0.0219562;0.153015;0.38181
2.3952;0.019996;0.148338;0.381841
2.40518;0.0180862;0.138048;0.3823
2.41516;0.0162516;0.133917;0.382024
2.42514;0.0143478;0.126541;0.380445
2.43512;0.0121959;0.125873;0.381028
2.4451;0.0103425;0.11312;0.381978
2.45508;0.0084189;0.103623;0.381411
2.46506;0.00663074;0.101078;0.381855
2.47504;0.00469826;0.0951544;0.382208
2.48502;0.00258291;0.087058;0.38181
2.495;0.000828348;0.0842135;0.382024
2.50498;-0.00082736;0.0778285;0.382484
2.51496;-0.00286265;0.068409;0.381901
2.52494;-0.00494439;0.0667299;0.381779
2.53492;-0.00685908;0.0586982;0.381994
2.5449;-0.00882023;0.047037;0.38181
2.55488;-0.0106341;0.0474498;0.380873
2.56486;-0.0125527;0.0436058;0.380139
2.57484;-0.0146226;0.0405752;0.380138
2.58482;-0.0165541;0.0342915;0.380828
2.5948;-0.0185044;0.0187055;0.381503
2.60478;-0.0202618;0.00930624;0.380921
2.61476;-0.0222951;0.0132149;0.38184
2.62474;-0.0241297;0.00621496;0.382224
2.63472;-0.0262768;-0.00369418;0.381196
2.6447;-0.0280777;0.000125432;0.382024
2.65468;-0.0298115;-0.00871955;0.38227
2.66466;-0.0318468;-0.0239292;0.38227
2.67464;-0.0339789;-0.00838371;0.381642
2.68462;-0.0357997;-0.0171802;0.382346
2.6946;-0.0377688;-0.0537902;0.381211
2.70458;-0.0396874;-0.0377914;0.379465
2.71456;-0.0411535;-0.0236945;0.382193
2.72454;-0.0434387;-0.0588276;0.382147
2.73452;-0.0454861;-0.0621456;0.380629
2.7445;-0.047114;-0.0426267;0.380584
2.75448;-0.0476853;-0.0538468;0.381856
2.76446;-0.0464766;-0.0709623;0.379694
2.77444;-0.0442414;-0.0477815;0.382025
2.78442;-0.0418778;-0.0431891;0.381979
2.7944;-0.0404722;-0.047907;0.381472
2.80438;-0.0383539;-0.034943;0.382377
2.81436;-0.0362841;-0.0247991;0.381994
2.82434;-0.0346362;-0.016909;0.380874
2.83432;-0.0325644;-0.0121588;0.382055
2.8443;-0.0306003;-0.0132877;0.3823
2.85428;-0.0287598;-0.0161686;0.381472
2.86426;-0.0267946;-0.000962996;0.381978
2.87424;-0.024965;0.0097756;0.382377
2.88422;-0.0228971;0.00892589;0.382055
2.8942;-0.0209498;0.00916059;0.381656
2.90418;-0.0188582;0.0262881;0.382101
2.91416;-0.0170453;0.0299459;0.382469
2.92414;-0.0154835;0.0320418;0.382024
2.93412;-0.0134582;0.0404822;0.381917
2.9441;-0.0112519;0.0451717;0.381488
2.95408;-0.0092492;0.0481821;0.382331
2.96406;-0.00737705;0.0567074;0.382484
2.97404;-0.00568971;0.0676888;0.382346
2.98402;-0.00378688;0.0765702;0.382377
2.994;-0.00163693;0.0671102;0.38118
3.00398;0.000407255;0.0761211;0.382116
3.01396;0.00227153;0.0926256;0.381657
3.02394;0.00393416;0.0965342;0.382484
3.03392;0.00548015;0.0977967;0.381396
3.0439;0.00794641;0.101086;0.382331
3.05388;0.00989765;0.103692;0.381656
3.06386;0.0118697;0.117817;0.381136
3.07384;0.0136331;0.127577;0.38112
3.08382;0.0152443;0.13138;0.381104
3.0938;0.0174081;0.137219;0.380737
3.10378;0.0195314;0.140638;0.381626
3.11376;0.0213858;0.14979;0.382362
3.12374;0.0231768;0.158393;0.382208
3.13372;0.0248899;0.158935;0.381748
3.1437;0.0268699;0.16691;0.382101
3.15368;0.0289378;0.177353;0.381089
3.16366;0.0309425;0.180667;0.381763
3.17364;0.032787;0.195249;0.382239
3.18362;0.0346048;0.192166;0.382438
3.1936;0.0363779;0.194129;0.382301
3.20358;0.0385132;0.210228;0.382285
3.21356;0.0404534;0.213975;0.382178
3.22354;0.0423337;0.21563;0.382484
3.23352;0.044258;0.226357;0.382469
3.2435;0.0462204;0.230738;0.382301
3.25348;0.0469511;0.232899;0.382362
3.26346;0.0452674;0.2281;0.382193
3.27344;0.0434933;0.222238;0.38227
3.28342;0.0414796;0.214797;0.381978
3.2934;0.039487;0.212757;0.38207
3.30338;0.0376186;0.206813;0.382484
3.31336;0.0357613;0.198179;0.382055
3.32334;0.0337181;0.194024;0.382484
3.33332;0.0318578;0.185737;0.381947
3.3433;0.0298947;0.177301;0.381948
3.35328;0.0279642;0.171769;0.381795
3.36326;0.0262501;0.164498;0.382147
3.37324;0.0242652;0.159865;0.382484
3.38322;0.0222922;0.154193;0.382423
3.3932;0.0204774;0.149835;0.382285
3.40318;0.0184589;0.138044;0.381381
3.41316;0.0167211;0.133003;0.381565
3.42314;0.0147343;0.128677;0.38227
3.43312;0.012694;0.123381;0.382193
3.4431;0.0107774;0.112893;0.381993
3.45308;0.00886668;0.108139;0.381672
3.46306;0.00695002;0.102539;0.382254
3.47304;0.00513912;0.0948428;0.381656
3.48302;0.00311767;0.0943168;0.382009
3.493;0.0012534;0.0864793;0.382484
3.50298;-0.000600998;0.0780188;0.382316
3.51296;-0.00258093;0.0734466;0.381917
3.52294;-0.00448969;0.0627687;0.380445
3.53292;-0.00648346;0.0615791;0.381211
3.5429;-0.00840111;0.0540087;0.382454
3.55288;-0.010296;0.0517225;0.381242
3.56286;-0.0122898;0.0413562;0.381426
3.57284;-0.0143072;0.0356794;0.381933
3.58282;-0.0160658;0.0283962;0.381059
3.5928;-0.0179794;0.0271945;0.381871
3.60278;-0.0199643;0.0213234;0.381687
3.61276;-0.0219214;0.0148252;0.382484
3.62274;-0.0237037;0.00861838;0.381534
3.63272;-0.0257172;0.00184507;0.381687
3.6427;-0.0278257;-0.00736003;0.381641
3.65268;-0.0296978;-0.0126282;0.382193
3.66266;-0.0314821;-0.0153593;0.382024
3.67264;-0.033381;-0.0146553;0.381411
3.68262;-0.0353895;-0.0223835;0.381595
3.6926;-0.0371551;-0.0332759;0.38207
3.70258;-0.0393188;-0.0351493;0.381887
3.71256;-0.0413068;-0.0394464;0.380384
3.72254;-0.042727;-0.0452122;0.380275
3.73252;-0.0450588;-0.0586415;0.381671
3.7425;-0.0471702;-0.0598069;0.378009
3.75248;-0.0477574;-0.0625421;0.379416
3.76246;-0.0463318;-0.0610288;0.380736
3.77244;-0.0448128;-0.050541;0.381381
3.78242;-0.0423733;-0.0434804;0.382408
3.7924;-0.0405395;-0.0384753;0.381518
3.80238;-0.0389599;-0.0362215;0.381549
3.81236;-0.0367705;-0.0241881;0.38207
3.82234;-0.0347746;-0.0254061;0.381518
3.83232;-0.0329312;-0.018398;0.381948
3.8423;-0.0311273;-0.0140767;0.382438
3.85228;-0.0290543;-0.00729934;0.381442
3.86226;-0.027103;-0.00102369;0.381902
3.87224;-0.0254187;0.00587103;0.38181
3.88222;-0.0233855;0.00888949;0.381871
3.8922;-0.0213471;0.0122074;0.382331
3.90218;-0.0194621;0.0166986;0.382208
3.91216;-0.0175188;0.0270569;0.382346
3.92214;-0.015612;0.0352909;0.382039
3.93212;-0.0136994;0.0390134;0.38227
3.9421;-0.0117639;0.0452324;0.38207
3.95208;-0.00975433;0.0511399;0.380614
3.96206;-0.00782878;0.054826;0.38207
3.97204;-0.00601393;0.0609722;0.382377
3.98202;-0.00396974;0.0669605;0.381886
3.992;-0.0019394;0.0721032;0.38138
4.00198;-8.79747e-05;0.0797789;0.379663
4.01196;0.00177729;0.0865442;0.381182
4.02194;0.00347649;0.0953124;0.380292
4.03192;0.00542084;0.100034;0.382025
4.0419;0.0074067;0.101839;0.382484
4.05188;0.00933718;0.108098;0.382484
4.06186;0.0113903;0.115802;0.382163
4.07184;0.013215;0.126318;0.3823
4.08182;0.015102;0.128952;0.382162
4.0918;0.0171482;0.139355;0.381702
4.10178;0.018961;0.139497;0.382285
4.11176;0.0209755;0.149681;0.38227
4.12174;0.0227489;0.149568;0.382132
4.13172;0.0246705;0.156798;0.382193
4.1417;0.0266643;0.16127;0.382025
4.15168;0.028662;0.172716;0.382392
4.16166;0.0304482;0.18477;0.382193
4.17164;0.0322264;0.192211;0.382116
4.18162;0.0340601;0.19336;0.382316
4.1916;0.0362227;0.19126;0.382377
4.20158;0.0381335;0.20163;0.382423
4.21156;0.0400541;0.217269;0.382377
4.22154;0.0420134;0.216747;0.382484
4.23152;0.0438231;0.224362;0.382208
4.2415;0.0459041;0.235655;0.382484
4.25148;0.0473394;0.228044;0.382484
4.26146;0.0454967;0.227732;0.382392
4.27144;0.0436701;0.229136;0.382484
4.28142;0.0419183;0.208557;0.382377
4.2914;0.0397518;0.187768;0.381948
4.30138;0.0382175;0.210852;0.381427
4.31136;0.036461;0.203945;0.382469
4.32134;0.0339939;0.175112;0.382239
4.33132;0.0322591;0.184705;0.38227
4.3413;0.0305845;0.193942;0.382392
4.35128;0.0283427;0.166594;0.382438
4.36126;0.0260712;0.155362;0.380798
4.37124;0.0247534;0.17037;0.382239
4.38122;0.022828;0.148949;0.381886
4.3912;0.0208431;0.143656;0.381841
4.40118;0.0190134;0.143563;0.382316
4.41116;0.0169821;0.137081;0.381734
4.42114;0.0150792;0.132861;0.382377
4.43112;0.01321;0.124231;0.382101
4.4411;0.0112973;0.111388;0.382316
4.45108;0.00937079;0.106743;0.381887
4.46106;0.00718528;0.108576;0.381258
4.47104;0.00539415;0.10351;0.382484
4.48102;0.00351504;0.0845372;0.382423
4.491;0.00177136;0.0829592;0.382484
4.50098;-1.77926e-05;0.0875071;0.382331
4.51096;-0.00224287;0.0750408;0.381886
4.52094;-0.00431572;0.0658721;0.381841
4.53092;-0.00610685;0.0597947;0.382408
4.5409;-0.00783669;0.0536566;0.382408
4.55088;-0.0097217;0.0460983;0.382331
4.56086;-0.0119794;0.0504197;0.382484
4.57084;-0.0139969;0.0487324;0.382377
4.58082;-0.0157939;0.0364805;0.382208
4.5908;-0.0175722;0.0151692;0.38207
4.60078;-0.0193534;0.023654;0.382377
4.61076;-0.0214114;0.0200246;0.382423
4.62074;-0.0238075;0.00924554;0.382484
4.63072;-0.0254958;0.00465718;0.382484
4.6407;-0.027032;-0.00758257;0.382362
4.65068;-0.0290406;-0.0103097;0.382147
4.66066;-0.0309958;-0.00498896;0.382377
4.67064;-0.0332367;-0.0170102;0.382132
4.68062;-0.0352749;-0.0281292;0.381917
4.6906;-0.0367635;-0.0301037;0.382178
4.70058;-0.0386547;-0.0357563;0.381518
4.71056;-0.0405958;-0.0350117;0.382147
4.72054;-0.0427568;-0.0474012;0.382086
4.73052;-0.0448305;-0.0518763;0.38158
4.7405;-0.046425;-0.0537173;0.382208
4.75048;-0.0479026;-0.0634808;0.382423
4.76046;-0.0467089;-0.0504156;0.382193
4.77044;-0.0448799;-0.0418943;0.382255
4.78042;-0.0431208;-0.0489954;0.381211
4.7904;-0.0411207;-0.0397094;0.381718
4.80038;-0.0390451;-0.0308765;0.382301
4.81036;-0.0370838;-0.0296627;0.38227
4.82034;-0.0352117;-0.022598;0.382484
4.83032;-0.0332703;-0.0150559;0.382484
4.8403;-0.0313862;-0.0184183;0.382392
4.85028;-0.0294923;-0.0060005;0.381993
4.86026;-0.0275381;0.000473405;0.382331
4.87024;-0.0255443;0.00381961;0.3823
4.88022;-0.0237927;0.0091444;0.381825
4.8902;-0.0217594;0.0157518;0.382147
4.90018;-0.0198981;0.020324;0.382178
4.91016;-0.0180121;0.0268344;0.381764
4.92014;-0.0159422;0.0356753;0.381626
4.93012;-0.0139573;0.039062;0.382147
4.9401;-0.0120792;0.0387787;0.381197
4.95008;-0.010208;0.0484127;0.381503
4.96006;-0.00814114;0.0532763;0.382086
4.97004;-0.00631542;0.0600092;0.382071
4.98002;-0.00443334;0.0679518;0.382285
4.99;-0.00242079;0.0699062;0.382454
4.99998;-0.00047546;0.0778002;0.382392
5.00996;0.00143429;0.0857187;0.38227
5.01994;0.0032274;0.0921562;0.382346
5.02992;0.00519843;0.0973071;0.382162
5.0399;0.00693124;0.0988163;0.381503
5.04988;0.00899519;0.105476;0.382377
5.05986;0.0109355;0.119262;0.382362
5.06984;0.0129046;0.123454;0.382239
5.07982;0.0148015;0.127075;0.382469
5.0898;0.0167023;0.133237;0.382055
5.09978;0.0186032;0.13817;0.382086
5.10976;0.0205328;0.147035;0.382316
5.11974;0.0224682;0.153711;0.382024
5.12972;0.0243888;0.159894;0.382101
5.1397;0.0262342;0.167913;0.38204
5.14968;0.0281558;0.176706;0.382086
5.15966;0.0300655;0.172983;0.382377
5.16964;0.0320524;0.184486;0.3823
5.17962;0.0337635;0.192037;0.382438
5.1896;0.0358343;0.200946;0.382408
5.19958;0.0376819;0.205349;0.382484
5.20956;0.0396587;0.213146;0.382454
5.21954;0.0416744;0.213911;0.382132
5.22952;0.0434931;0.220542;0.382484
5.2395;0.0453477;0.229055;0.382178
5.24948;0.047113;0.230471;0.382162
5.25946;0.0460857;0.225948;0.382285
5.26944;0.0441623;0.22541;0.382162
5.27942;0.0425096;0.219163;0.3823
5.2894;0.040405;0.212875;0.382285
5.29938;0.0383954;0.206235;0.382484
5.30936;0.0365628;0.197305;0.382009
5.31934;0.0345324;0.194343;0.382116
5.32932;0.0325882;0.182998;0.382224
5.3393;0.0307753;0.183762;0.381918
5.34928;0.028825;0.171175;0.382438
5.35926;0.026849;0.163499;0.382408
5.36924;0.025137;0.163236;0.382346
5.37922;0.023242;0.155742;0.382454
5.3892;0.0213066;0.147015;0.382484
