t;vds;corrente;vg
0;-0.00209064;0.0199194;0
2e-05;-0.00201947;0.0187339;0
4e-05;-0.0022053;0.0153877;0
6e-05;-0.00205506;0.0215298;0.0484205
8e-05;-0.00198388;0.0190009;0.00102444
0.0001;-0.00216972;0.0177142;0.138411
0.00012;-0.00231503;0.0192397;0.379025
0.00014;-0.00214303;0.0188027;0.391382
0.00016;-0.00234171;0.022161;0.391382
0.00018;-0.00245242;0.0155091;0.391382
0.0002;-0.00196411;0.0198264;0.391382
0.00022;-0.000451737;0.0228044;0.391382
0.00024;-0.000702811;0.0192396;0.391382
0.00026;-0.000630652;0.0209431;0.391382
0.00028;0.000503137;0.0214327;0.391382
0.0003;0.00211634;0.0256569;0.391382
0.00032;0.00433054;0.0301927;0.391382
0.00034;0.00616714;0.0328875;0.391382
0.00036;0.00801264;0.0340285;0.391382
0.00038;0.010126;0.0390256;0.391382
0.0004;0.012015;0.0449047;0.391382
0.00042;0.0140324;0.0470896;0.391382
0.00044;0.0158384;0.0541745;0.391382
0.00046;0.0178361;0.052107;0.391382
0.00048;0.0198348;0.0571647;0.391382
0.0005;0.0217979;0.0615589;0.391382
0.00052;0.0236751;0.0618461;0.391382
0.00054;0.0258457;0.0655039;0.391382
0.00056;0.0274955;0.0690848;0.391382
0.00058;0.0295832;0.0722853;0.391382
0.0006;0.0314475;0.076113;0.391382
0.00062;0.033297;0.0794713;0.391382
0.00064;0.0351138;0.0850591;0.391382
0.00066;0.037336;0.0868273;0.391382
0.00068;0.0393178;0.0912741;0.391382
0.0007;0.041368;0.0915169;0.391382
0.00072;0.0432094;0.0977481;0.391382
0.00074;0.045144;0.0975822;0.391382
0.00076;0.0470249;0.0994879;0.391382
0.00078;0.047294;0.104696;0.391382
0.0008;0.0453227;0.0985251;0.391382
0.00082;0.0431374;0.0930058;0.391382
0.00084;0.041357;0.0948186;0.391382
0.00086;0.0393386;0.0903394;0.391382
0.00088;0.0373784;0.0861881;0.391382
0.0009;0.0354419;0.0825019;0.391382
0.00092;0.0335332;0.0787551;0.391382
0.00094;0.0316047;0.0773107;0.391382
0.00096;0.0295912;0.0732604;0.391382
0.00098;0.0277081;0.0679924;0.391382
0.001;0.0256283;0.0652733;0.391382
0.00102;0.0238085;0.0647311;0.391382
0.00104;0.0217594;0.0618704;0.391382
0.00106;0.0201205;0.0553965;0.391382
0.00108;0.0180575;0.0517064;0.391382
0.0011;0.0160519;0.0522971;0.391382
0.00112;0.0138802;0.0470694;0.391382
0.00114;0.0119566;0.0458919;0.391382
0.00116;0.00990457;0.0389123;0.391382
0.00118;0.00811445;0.0365655;0.391382
0.0012;0.00626698;0.0339921;0.391382
0.00122;0.00434141;0.0317667;0.391382
0.00124;0.00236643;0.0242043;0.391382
0.00126;0.000622743;0.0207934;0.391382
0.00128;-0.00134038;0.0179044;0.391382
0.0013;-0.00325112;0.0172813;0.391382
0.00132;-0.00529926;0.00800337;0.391382
0.00134;-0.00741856;0.0129276;0.391382
0.00136;-0.00929468;0.00328552;0.391382
0.00138;-0.0111105;0.00279997;0.391382
0.0014;-0.0132921;-0.00486758;0.391382
0.00142;-0.0152325;-0.00767968;0.391382
0.00144;-0.0171501;-0.0134495;0.391382
0.00146;-0.0192002;-0.0162536;0.391382
0.00148;-0.0212078;-0.0172934;0.391382
0.0015;-0.0228714;-0.0217119;0.391382
0.00152;-0.0249957;-0.0266037;0.391382
0.00154;-0.0267829;-0.0295898;0.391382
0.00156;-0.0288152;-0.0327418;0.391382
0.00158;-0.0308169;-0.0366383;0.391382
0.0016;-0.0327197;-0.0384591;0.391382
0.00162;-0.0345404;-0.0476197;0.391382
0.00164;-0.0366844;-0.0484128;0.391382
0.00166;-0.038275;-0.0546115;0.391382
0.00168;-0.0404515;-0.0580994;0.391382
0.0017;-0.0423327;-0.0625502;0.391366
0.00172;-0.0443915;-0.0656212;0.391382
0.00174;-0.0461937;-0.0727506;0.391382
0.00176;-0.0479521;-0.072172;0.391382
0.00178;-0.0482744;-0.0750529;0.391382
0.0018;-0.0466396;-0.0722691;0.391382
0.00182;-0.0447248;-0.0697646;0.391382
0.00184;-0.0429258;-0.0641808;0.391382
0.00186;-0.040932;-0.0606809;0.391382
0.00188;-0.0387792;-0.0551659;0.391382
0.0019;-0.0368633;-0.052204;0.391382
0.00192;-0.035097;-0.0463451;0.391382
0.00194;-0.0331951;-0.0442694;0.391382
0.00196;-0.0311114;-0.0408585;0.391382
0.00198;-0.029354;-0.0326366;0.391382
0.002;-0.0273057;-0.0314349;0.391382
0.00202;-0.0253822;-0.0263165;0.391382
0.00204;-0.0233341;-0.0236783;0.391382
0.00206;-0.021273;-0.0206396;0.391382
0.00208;-0.0195897;-0.0169374;0.391382
0.0021;-0.0177343;-0.0122033;0.391382
0.00212;-0.0155142;-0.00687044;0.391382
0.00214;-0.0136944;-0.00403811;0.391382
0.00216;-0.0116285;-0.00205952;0.391382
0.00218;-0.00986207;0.00519532;0.391382
0.0022;-0.00794048;0.0112929;0.391382
0.00222;-0.00589926;0.0078658;0.391382
0.00224;-0.00362476;0.0130571;0.391382
0.00226;-0.00186527;0.0187784;0.391382
0.00228;-1.08731e-05;0.0216917;0.391382
0.0023;0.00201552;0.0233263;0.391382
0.00232;0.00371472;0.0267089;0.391382
0.00234;0.00571145;0.0321632;0.391382
0.00236;0.00760242;0.0360799;0.391382
0.00238;0.00947854;0.0411539;0.391382
0.0024;0.0114614;0.0455481;0.391382
0.00242;0.0135946;0.0411619;0.391382
0.00244;0.0155952;0.0513705;0.391382
0.00246;0.0174605;0.0517306;0.391382
0.00248;0.0194048;0.0564041;0.391382
0.0025;0.0213867;0.0625542;0.391382
0.00252;0.0231453;0.0619554;0.391382
0.00254;0.0251509;0.0661756;0.391382
0.00256;0.0269054;0.0718888;0.391382
0.00258;0.0288597;0.0737258;0.391382
0.0026;0.0311391;0.0789372;0.391382
0.00262;0.0331823;0.0816644;0.391382
0.00264;0.0350327;0.0836228;0.391382
0.00266;0.0367656;0.088636;0.391382
0.00268;0.038791;0.0874706;0.391382
0.0027;0.0407768;0.092666;0.391382
0.00272;0.0426174;0.096688;0.391382
0.00274;0.0445962;0.0990024;0.391382
0.00276;0.0466939;0.099403;0.391382
0.00278;0.0474531;0.10069;0.391382
0.0028;0.045465;0.0978775;0.391382
0.00282;0.0435299;0.0936087;0.391382
0.00284;0.0415714;0.0946;0.391382
0.00286;0.0397578;0.0882678;0.391382
0.00288;0.0378607;0.0863944;0.391318
0.0029;0.0357435;0.0865279;0.391382
0.00292;0.0337991;0.0812598;0.391382
0.00294;0.0318182;0.0781522;0.391382
0.00296;0.0299559;0.0733535;0.391382
0.00298;0.027887;0.0698859;0.391382
0.003;0.0261404;0.0714478;0.391382
0.00302;0.0240804;0.064197;0.391382
0.00304;0.0223901;0.0598959;0.391382
0.00306;0.0202372;0.061049;0.391382
0.00308;0.0181762;0.0544619;0.391382
0.0031;0.0164424;0.0526127;0.391382
0.00312;0.0144021;0.049659;0.391382
0.00314;0.012272;0.0463856;0.391382
0.00316;0.0105758;0.0396689;0.391382
0.00318;0.00860275;0.0372372;0.391382
0.0032;0.00652399;0.0337008;0.391382
0.00322;0.00463796;0.0314794;0.391382
0.00324;0.00286265;0.0275708;0.391382
0.00326;0.000861957;0.0246413;0.39135
0.00328;-0.000923243;0.0184102;0.391382
0.0033;-0.00315029;0.017961;0.391382
0.00332;-0.00482083;0.00879642;0.391382
0.00334;-0.00686699;0.00820567;0.391382
0.00336;-0.00878068;0.00731552;0.391382
0.00338;-0.0110107;0.0030306;0.391382
0.0034;-0.012959;-0.00169536;0.391382
0.00342;-0.0147402;-0.00857389;0.391382
0.00344;-0.0166845;-0.012523;0.391382
0.00346;-0.0186843;-0.0154686;0.391382
0.00348;-0.0204793;-0.0185882;0.391382
0.0035;-0.022651;-0.0251349;0.391382
0.00352;-0.0244728;-0.0284812;0.391382
0.00354;-0.0263588;-0.0297921;0.391382
0.00356;-0.0285108;-0.0333892;0.391382
0.00358;-0.0304324;-0.0355903;0.391382
0.0036;-0.0323362;-0.0428937;0.391382
0.00362;-0.0340551;-0.0475388;0.391382
0.00364;-0.0361615;-0.0503509;0.391382
0.00366;-0.0380031;-0.0521312;0.391382
0.00368;-0.0399276;-0.0591433;0.391382
0.0037;-0.0418434;-0.0625866;0.391382
0.00372;-0.0439586;-0.063149;0.391382
0.00374;-0.0460939;-0.0711524;0.391382
0.00376;-0.0476891;-0.0750772;0.391382
0.00378;-0.0487172;-0.076643;0.391382
0.0038;-0.04712;-0.0736165;0.391382
0.00382;-0.0451597;-0.069275;0.391382
0.00384;-0.043083;-0.0634242;0.391382
0.00386;-0.0412186;-0.0610126;0.391382
0.00388;-0.039132;-0.0573549;0.391382
0.0039;-0.0374436;-0.0543485;0.391382
0.00392;-0.0355023;-0.0489792;0.391382
0.00394;-0.0335796;-0.0453295;0.391382
0.00396;-0.0313418;-0.0423192;0.391382
0.00398;-0.0295408;-0.0375932;0.391382
0.004;-0.0275163;-0.0311152;0.391382
0.00402;-0.0257233;-0.0298245;0.391382
0.00404;-0.0240171;-0.0247708;0.391382
0.00406;-0.0219255;-0.0193408;0.391382
0.00408;-0.0198358;-0.0188553;0.391382
0.0041;-0.0179162;-0.011734;0.391382
0.00412;-0.0159303;-0.0083918;0.391382
0.00414;-0.0142133;-0.00530861;0.391382
0.00416;-0.0122216;-0.00137166;0.391382
0.00418;-0.0102535;-4.046e-06;0.391382
0.0042;-0.00815102;0.00623519;0.391382
0.00422;-0.00632728;0.00891781;0.391382
0.00424;-0.00424652;0.0111877;0.391382
0.00426;-0.00230514;0.0176212;0.391382
0.00428;-0.0005407;0.0209714;0.391382
0.0043;0.00138585;0.0247101;0.391382
0.00432;0.00316809;0.0285014;0.391382
0.00434;0.00531804;0.0319852;0.391382
0.00436;0.00729204;0.0330372;0.391382
0.00438;0.00930556;0.0407614;0.391382
0.0044;0.0112232;0.0437191;0.391382
0.00442;0.0130598;0.0483197;0.391382
0.00444;0.015447;0.0470856;0.391382
0.00446;0.0172559;0.0552711;0.391382
0.00448;0.0189047;0.0576381;0.391382
0.0045;0.0209756;0.060256;0.391382
0.00452;0.0231334;0.0634849;0.391382
0.00454;0.0248435;0.0681947;0.391318
0.00456;0.0268224;0.0700195;0.391382
0.00458;0.0285858;0.0759269;0.391382
0.0046;0.0305698;0.0787956;0.391382
0.00462;0.0324686;0.0788684;0.391382
0.00464;0.0343369;0.0813326;0.391382
0.00466;0.0366706;0.0878065;0.391382
0.00468;0.0384203;0.0899307;0.391382
0.0047;0.0404218;0.0904891;0.391382
0.00472;0.0423743;0.0960527;0.391382
0.00474;0.0442956;0.0980111;0.391382
0.00476;0.0461591;0.101993;0.391382
0.00478;0.0475884;0.102377;0.391382
0.0048;0.0460947;0.0994515;0.391382
0.00482;0.0440931;0.0976793;0.391382
0.00484;0.042289;0.0953082;0.391382
0.00486;0.0401511;0.0918001;0.391382
0.00488;0.0382482;0.0866411;0.391382
0.0049;0.0364393;0.0856256;0.391382
0.00492;0.0339108;0.0842176;0.391382
0.00494;0.0325141;0.0801511;0.391382
0.00496;0.0301496;0.0752027;0.391382
0.00498;0.0284909;0.0704322;0.391382
0.005;0.0267057;0.0701489;0.391382
0.00502;0.024459;0.0652854;0.391382
0.00504;0.022655;0.0610167;0.391382
0.00506;0.0207245;0.0597786;0.391382
0.00508;0.0185963;0.0561896;0.391382
0.0051;0.0166648;0.0541057;0.391382
0.00512;0.0147659;0.0495457;0.391382
0.00514;0.0127889;0.0460822;0.391382
0.00516;0.0109761;0.0407411;0.391382
0.00518;0.00875695;0.0395677;0.391382
0.0052;0.00712597;0.0354851;0.391382
0.00522;0.00508278;0.0304881;0.391382
0.00524;0.0032956;0.0247829;0.391382
0.00526;0.00149953;0.0248315;0.391382
0.00528;-0.00068996;0.0215338;0.391382
0.0053;-0.00261157;0.0180298;0.391382
0.00532;-0.00430978;0.0120536;0.391382
0.00534;-0.00674442;0.00859412;0.391382
0.00536;-0.00854741;0.00376297;0.391382
0.00538;-0.0105382;0.00146472;0.391382
0.0054;-0.0124568;-0.00214853;0.391382
0.00542;-0.0143933;-0.00278783;0.391382
0.00544;-0.0161646;-0.0101883;0.391382
0.00546;-0.0181603;-0.0130935;0.391382
0.00548;-0.0202895;-0.0152137;0.391382
0.0055;-0.0222764;-0.0207367;0.391382
0.00552;-0.023937;-0.0264702;0.391382
0.00554;-0.0259762;-0.0307187;0.391382
0.00556;-0.0280936;-0.0362984;0.391382
0.00558;-0.0298106;-0.0383498;0.391382
0.0056;-0.0318933;-0.0445082;0.391382
0.00562;-0.0337102;-0.045366;0.391382
0.00564;-0.0356198;-0.0499908;0.391382
0.00566;-0.0377462;-0.0498006;0.391382
0.00568;-0.0397161;-0.0580387;0.391382
0.0057;-0.0414757;-0.0620363;0.391382
0.00572;-0.0433517;-0.0663658;0.391382
0.00574;-0.0453882;-0.070165;0.391382
0.00576;-0.0473976;-0.0739806;0.391382
0.00578;-0.0489139;-0.0793094;0.391382
0.0058;-0.0474748;-0.0743813;0.391382
0.00582;-0.0455085;-0.0714194;0.391382
0.00584;-0.0435911;-0.066386;0.391382
0.00586;-0.0414963;-0.0593415;0.391382
0.00588;-0.0397132;-0.0573185;0.391382
0.0059;-0.0378331;-0.0546803;0.391382
0.00592;-0.0355597;-0.048963;0.391382
0.00594;-0.0337863;-0.0443868;0.391382
0.00596;-0.0319181;-0.0402475;0.391382
0.00598;-0.0298472;-0.0374071;0.391382
0.006;-0.0281064;-0.0323575;0.391382
0.00602;-0.0261849;-0.0300673;0.391382
0.00604;-0.0243147;-0.0268101;0.391382
0.00606;-0.0223554;-0.0237552;0.391382
0.00608;-0.0201175;-0.0158934;0.391382
0.0061;-0.0181989;-0.0144409;0.391382
0.00612;-0.0164542;-0.00813284;0.391382
0.00614;-0.0144921;-0.00531266;0.391382
0.00616;-0.0124924;-0.00187339;0.391382
0.00618;-0.0105589;0.00338262;0.391382
0.0062;-0.00861264;0.00357684;0.391382
0.00622;-0.00672168;0.014275;0.391382
0.00624;-0.00457173;0.0168483;0.391382
0.00626;-0.00296347;0.0150518;0.391382
0.00628;-0.000671179;0.0235043;0.391382
0.0063;0.00127218;0.0238037;0.391382
0.00632;0.00271339;0.0274494;0.391382
0.00634;0.00497306;0.0319123;0.391382
0.00636;0.00683734;0.0347811;0.391382
0.00638;0.00882121;0.0383539;0.391382
0.0064;0.0108021;0.0404579;0.391382
0.00642;0.0126397;0.0465353;0.391382
0.00644;0.0147728;0.0470451;0.391382
0.00646;0.0166252;0.0533815;0.391382
0.00648;0.0184075;0.0562786;0.391382
0.0065;0.0206088;0.0611745;0.391382
0.00652;0.0222309;0.0639947;0.391382
0.00654;0.0243482;0.0655929;0.391382
0.00656;0.0265545;0.0686963;0.391382
0.00658;0.0283585;0.0706506;0.391382
0.0066;0.0302574;0.0752309;0.391382
0.00662;0.0322393;0.0781725;0.391382
0.00664;0.0342459;0.0788441;0.391382
0.00666;0.0362257;0.088017;0.391382
0.00668;0.0380219;0.0917274;0.391382
0.0067;0.0400156;0.0946284;0.391382
0.00672;0.0420194;0.0958868;0.391382
0.00674;0.0438044;0.0967608;0.391382
0.00676;0.0458241;0.0989337;0.391382
0.00678;0.0473502;0.103457;0.391382
0.0068;0.0462104;0.101208;0.391382
0.00682;0.0444529;0.0979868;0.391382
0.00684;0.0422833;0.0955388;0.391382
0.00686;0.0404278;0.0935279;0.391382
0.00688;0.0387701;0.0854395;0.391382
0.0069;0.0363681;0.0833557;0.391382
0.00692;0.0346975;0.0847111;0.391382
0.00694;0.0327908;0.0787471;0.391382
0.00696;0.030886;0.0761494;0.391382
0.00698;0.0285888;0.0757408;0.391382
0.007;0.0268886;0.0671588;0.391382
0.00702;0.0249966;0.0679721;0.391382
0.00704;0.0233587;0.0603814;0.391382
0.00706;0.0212641;0.059993;0.391382
0.00708;0.0191023;0.0538266;0.391382
0.0071;0.0173814;0.0550121;0.391382
0.00712;0.0151376;0.0494404;0.391382
0.00714;0.0132575;0.0483885;0.391382
0.00716;0.0111323;0.0412348;0.391382
0.00718;0.0091731;0.0397862;0.391382
0.0072;0.00727227;0.0369134;0.391382
0.00722;0.00541392;0.0327216;0.391382
0.00724;0.00351109;0.029958;0.391382
0.00726;0.00176938;0.0275425;0.391382
0.00728;-0.0003776;0.026017;0.391382
0.0073;-0.00208965;0.017872;0.391382
0.00732;-0.00390747;0.0144935;0.391382
0.00734;-0.00640833;0.0129559;0.391382
0.00736;-0.00798793;0.00466527;0.391382
0.00738;-0.0101616;0.00634039;0.391382
0.0074;-0.0120476;-0.00279997;0.391382
0.00742;-0.0138693;-0.00496873;0.391382
0.00744;-0.0160321;-0.00784153;0.391382
0.00746;-0.0178381;-0.014012;0.391382
0.00748;-0.0197458;-0.0181108;0.391382
0.0075;-0.0218869;-0.0175888;0.391382
0.00752;-0.0237176;-0.0264378;0.391382
0.00754;-0.0256085;-0.0280118;0.391382
0.00756;-0.0275143;-0.0333852;0.391382
0.00758;-0.0295466;-0.0363915;0.391382
0.0076;-0.0313753;-0.0407007;0.391382
0.00762;-0.033464;-0.0419671;0.391382
0.00764;-0.0352729;-0.0519896;0.391382
0.00766;-0.0370948;-0.0520948;0.391382
0.00768;-0.039472;-0.0576098;0.391382
0.0077;-0.0412059;-0.0624976;0.391382
0.00772;-0.04316;-0.063493;0.391382
0.00774;-0.0449365;-0.0736326;0.391382
0.00776;-0.047203;-0.0742882;0.391382
0.00778;-0.0484878;-0.0774847;0.391382
0.0078;-0.0477407;-0.0745027;0.391382
0.00782;-0.0459633;-0.0741304;0.391382
0.00784;-0.0439785;-0.0656253;0.391382
0.00786;-0.0419026;-0.0637115;0.391382
0.00788;-0.0400404;-0.0570797;0.391382
0.0079;-0.0380425;-0.0574034;0.391382
0.00792;-0.0361616;-0.0492543;0.391382
0.00794;-0.0342607;-0.0416475;0.391382
0.00796;-0.0323352;-0.0415948;0.391382
0.00798;-0.0305045;-0.0372979;0.391382
0.008;-0.0285661;-0.0358169;0.391382
0.00802;-0.0264082;-0.0313256;0.391382
0.00804;-0.0245143;-0.025135;0.391382
0.00806;-0.0225482;-0.0231199;0.391382
0.00808;-0.0207482;-0.0154646;0.391382
0.0081;-0.0186921;-0.0159744;0.391382
0.00812;-0.0168032;-0.00779701;0.391382
0.00814;-0.0149063;-0.00525197;0.391382
0.00816;-0.0130272;-0.00141617;0.391382
0.00818;-0.010978;4.04584e-06;0.391382
0.0082;-0.00876388;0.00779701;0.391382
0.00822;-0.00705678;0.00855365;0.391382
0.00824;-0.00516581;0.0157801;0.391382
0.00826;-0.00304156;0.0138299;0.391382
0.00828;-0.00124549;0.0207853;0.391382
0.0083;0.000756189;0.0252199;0.391382
0.00832;0.00271833;0.0268546;0.391382
0.00834;0.00471407;0.0305083;0.391382
0.00836;0.00638165;0.0337493;0.391382
0.00838;0.00858891;0.0388475;0.391382
0.0084;0.0104275;0.0433267;0.391382
0.00842;0.0123511;0.0459567;0.391382
0.00844;0.0145613;0.0493798;0.391382
0.00846;0.0164681;0.0547977;0.391382
0.00848;0.0182671;0.0558942;0.391382
0.0085;0.0202579;0.0592323;0.391382
0.00852;0.0220381;0.065249;0.391382
0.00854;0.0240398;0.0652935;0.391382
0.00856;0.0260257;0.0724229;0.391382
0.00858;0.0279196;0.0712697;0.391382
0.0086;0.029939;0.075846;0.391382
0.00862;0.0317776;0.0781806;0.391382
0.00864;0.0336894;0.0849458;0.391382
0.00866;0.0358284;0.0847759;0.391382
0.00868;0.0379092;0.0848326;0.391382
0.0087;0.0395461;0.0923423;0.391382
0.00872;0.0414856;0.0961335;0.391382
0.00874;0.0435237;0.0943736;0.391382
0.00876;0.0454238;0.0982336;0.391382
0.00878;0.0473976;0.105881;0.391382
0.0088;0.0468295;0.0987798;0.391382
0.00882;0.0447702;0.0966555;0.391382
0.00884;0.0429308;0.0932932;0.391382
0.00886;0.0410061;0.0907684;0.391382
0.00888;0.0388582;0.0937949;0.391382
0.0089;0.0370037;0.0870458;0.391382
0.00892;0.0348607;0.0848082;0.391382
0.00894;0.0329105;0.0804343;0.391382
0.00896;0.0309592;0.0778326;0.391382
0.00898;0.0290336;0.0765702;0.391382
0.009;0.0274016;0.0706304;0.391382
0.00902;0.0254197;0.0685912;0.391382
0.00904;0.0234171;0.0674825;0.391382
0.00906;0.0213996;0.0588763;0.391382
0.00908;0.0196262;0.0564849;0.391382
0.0091;0.0172816;0.0522849;0.391382
0.00912;0.0157109;0.0525317;0.391382
0.00914;0.0136697;0.044581;0.391382
0.00916;0.011758;0.0442047;0.391382
0.00918;0.00970687;0.0386776;0.391382
0.0092;0.00778232;0.0343077;0.391382
0.00922;0.00578954;0.0329644;0.391382
0.00924;0.00398853;0.0283193;0.391382
0.00926;0.00201453;0.0285783;0.391382
0.00928;-5.73319e-05;0.0230633;0.391382
0.0093;-0.00192952;0.021024;0.391382
0.00932;-0.00393515;0.0160472;0.391382
0.00934;-0.00591706;0.0155778;0.391382
0.00936;-0.00784658;0.0104068;0.391382
0.00938;-0.00969008;0.000679761;0.391382
0.0094;-0.0114189;-0.00374678;0.391382
0.00942;-0.0139089;-0.00299824;0.391382
0.00944;-0.0153916;-0.00749355;0.391382
0.00946;-0.0174951;-0.0121386;0.391382
0.00948;-0.0195867;-0.0184506;0.391382
0.0095;-0.0214974;-0.0193084;0.391382
0.00952;-0.0234309;-0.0211333;0.391382
0.00954;-0.0252339;-0.0283395;0.391382
0.00956;-0.0273265;-0.0270407;0.391382
0.00958;-0.0292472;-0.0341903;0.391382
0.0096;-0.0310215;-0.0393088;0.391382
0.00962;-0.0330262;-0.0464261;0.391382
0.00964;-0.0349942;-0.0453457;0.391382
0.00966;-0.0369178;-0.0553074;0.391382
0.00968;-0.0388641;-0.058852;0.391382
0.0097;-0.0408816;-0.0596248;0.391382
0.00972;-0.0425472;-0.0653623;0.391382
0.00974;-0.0443551;-0.0697727;0.391382
0.00976;-0.0465189;-0.0724026;0.391382
0.00978;-0.0484116;-0.0765743;0.391382
0.0098;-0.0481637;-0.0765743;0.391382
0.00982;-0.0461621;-0.074017;0.391382
0.00984;-0.0445102;-0.0667501;0.391382
0.00986;-0.0425154;-0.0622427;0.391382
0.00988;-0.0404061;-0.0585161;0.391382
0.0099;-0.0386327;-0.0546723;0.391382
0.00992;-0.0367299;-0.0491815;0.391382
0.00994;-0.0346067;-0.048607;0.391382
0.00996;-0.0328047;-0.0412591;0.391382
0.00998;-0.0307723;-0.0412955;0.391382
0.01;-0.0287588;-0.0350077;0.391382
0.01002;-0.0269637;-0.0313054;0.391382
0.01004;-0.0247762;-0.026628;0.391382
0.01006;-0.0231175;-0.0211859;0.391382
0.01008;-0.0211544;-0.0179003;0.391382
0.0101;-0.0191191;-0.0191547;0.391382
0.01012;-0.0169692;-0.0125594;0.391382
0.01014;-0.0152592;-0.00901896;0.391382
0.01016;-0.0133296;-0.00676119;0.391382
0.01018;-0.0113833;-0.000530052;0.391382
0.0102;-0.00924428;0.00422019;0.391382
0.01022;-0.00750654;0.00997791;0.391382
0.01024;-0.00563633;0.0113536;0.391382
0.01026;-0.0033124;0.0154362;0.391382
0.01028;-0.00151337;0.0190859;0.391382
0.0103;0.000637571;0.0212344;0.391382
0.01032;0.00215687;0.0239616;0.391382
0.01034;0.0039569;0.0304193;0.391382
0.01036;0.00607917;0.0317586;0.391382
0.01038;0.00816388;0.0391267;0.391382
0.0104;0.00995104;0.0395758;0.391382
0.01042;0.0121227;0.0442411;0.391382
0.01044;0.0138199;0.0453862;0.391382
0.01046;0.0157257;0.0499867;0.391382
0.01048;0.0176078;0.0569543;0.391382
0.0105;0.0198417;0.0566306;0.391382
0.01052;0.0217693;0.0592363;0.391382
0.01054;0.0236345;0.0649981;0.391382
0.01056;0.0255719;0.0682472;0.391382
