t;vds;corrente;vg
0;-0.00201947;0.0177345;0.0960414
2e-05;-0.0021114;0.0209593;0.0958493
4e-05;-0.00197598;0.019972;0.0958493
6e-05;-0.00191667;0.0160553;0.0958493
8e-05;-0.00190481;0.0144409;0.0958493
0.0001;-0.00133742;0.0218373;0.0958493
0.00012;-0.000418128;0.0230674;0.0958493
0.00014;-0.000436909;0.02172;0.0958493
0.00016;0.000602974;0.0257136;0.0958493
0.00018;0.0024801;0.0336279;0.0958493
0.0002;0.00429298;0.0405874;0.0958493
0.00022;0.00614243;0.0482994;0.0958493
0.00024;0.00830918;0.0555058;0.0958493
0.00026;0.00992041;0.062704;0.0958493
0.00028;0.0120081;0.0684819;0.0958493
0.0003;0.013898;0.0739199;0.0958493
0.00032;0.0155992;0.0860464;0.0958493
0.00034;0.0175653;0.0908736;0.0958493
0.00036;0.0196085;0.0969388;0.0958493
0.00038;0.0215706;0.108062;0.0958493
0.0004;0.0234517;0.114289;0.0958493
0.00042;0.0254523;0.122074;0.0958493
0.00044;0.0270903;0.127403;0.0958493
0.00046;0.0290456;0.135175;0.0958493
0.00048;0.0309503;0.141941;0.0958493
0.0005;0.0327356;0.151797;0.0958493
0.00052;0.0348924;0.158044;0.0958493
0.00054;0.0367498;0.161609;0.0958493
0.00056;0.038529;0.175811;0.0958493
0.00058;0.0407194;0.180242;0.0958493
0.0006;0.0424908;0.186202;0.0958493
0.00062;0.0445023;0.190131;0.0958493
0.00064;0.0463024;0.19902;0.0958493
0.00066;0.0461107;0.196686;0.0958493
0.00068;0.0442226;0.193413;0.0958493
0.0007;0.0423979;0.183127;0.0958493
0.00072;0.0404436;0.175597;0.0971938
0.00074;0.0385162;0.172999;0.0978021
0.00076;0.0364976;0.165287;0.0971458
0.00078;0.0344664;0.156616;0.0958493
0.0008;0.0326199;0.142807;0.0958493
0.00082;0.0309266;0.14366;0.0958493
0.00084;0.028921;0.13032;0.0958493
0.00086;0.0270557;0.125372;0.0958493
0.00088;0.0251637;0.118489;0.0958493
0.0009;0.0232826;0.11401;0.0958493
0.00092;0.0214401;0.106197;0.0959453
0.00094;0.0195116;0.099492;0.0958493
0.00096;0.0175277;0.0898215;0.0958973
0.00098;0.0156664;0.0841771;0.0958493
0.001;0.0137142;0.0767725;0.0958493
0.00102;0.0117669;0.066305;0.0958493
0.00104;0.0100054;0.062534;0.0958493
0.00106;0.00788018;0.0551133;0.0958493
0.00108;0.00613255;0.0455197;0.0958493
0.0011;0.00411999;0.0399724;0.0958493
0.00112;0.00226659;0.0356349;0.0958493
0.00114;0.000430978;0.0293268;0.0958493
0.00116;-0.00138783;0.0187703;0.0958493
0.00118;-0.0033302;0.0162859;0.0958493
0.0012;-0.00531507;0.00757043;0.0958493
0.00122;-0.00744525;-0.000890164;0.0958493
0.00124;-0.00920573;-0.00798315;0.0958493
0.00126;-0.0110473;-0.0148738;0.0958493
0.00128;-0.0130311;-0.0179489;0.0958493
0.0013;-0.0149567;-0.0286916;0.0958493
0.00132;-0.0170008;-0.0330129;0.0958493
0.00134;-0.0187663;-0.0397863;0.0958493
0.00136;-0.0206751;-0.0500676;0.0958493
0.00138;-0.0226619;-0.0536283;0.0958493
0.0014;-0.0245825;-0.0549433;0.0958493
0.00142;-0.0264557;-0.0662929;0.0958493
0.00144;-0.0284069;-0.0761494;0.0958493
0.00146;-0.0303325;-0.0773349;0.0958493
0.00148;-0.0322541;-0.0878713;0.0958493
0.0015;-0.0342716;-0.0880979;0.0958493
0.00152;-0.0360359;-0.0971047;0.0958493
0.00154;-0.0379972;-0.102648;0.0958493
0.00156;-0.0398969;-0.107932;0.0958493
0.00158;-0.0418306;-0.114366;0.0958493
0.0016;-0.043835;-0.121317;0.0958493
0.00162;-0.0456561;-0.12824;0.0958493
0.00164;-0.0475577;-0.133905;0.0958493
0.00166;-0.047717;-0.132784;0.0958493
0.00168;-0.0459305;-0.123377;0.0958493
0.0017;-0.0440585;-0.121346;0.0958493
0.00172;-0.042028;-0.114811;0.0958493
0.00174;-0.0402203;-0.109482;0.0958493
0.00176;-0.0382244;-0.103255;0.0958493
0.00178;-0.0362792;-0.0996134;0.0958493
0.0018;-0.0343387;-0.0923949;0.0958493
0.00182;-0.0324666;-0.0875839;0.0958493
0.00184;-0.0304857;-0.0802765;0.0958493
0.00186;-0.028654;-0.0708773;0.0958493
0.00188;-0.0267423;-0.0685346;0.0958493
0.0019;-0.0247584;-0.0620363;0.0958493
0.00192;-0.0229011;-0.0531144;0.0958493
0.00194;-0.0209844;-0.0454955;0.0958493
0.00196;-0.0190183;-0.0450463;0.0958493
0.00198;-0.0171946;-0.0361608;0.0958493
0.002;-0.0151514;-0.0232413;0.0958493
0.00202;-0.0132822;-0.0193529;0.0958493
0.00204;-0.0113151;-0.0187865;0.0958493
0.00206;-0.00928281;-0.00341904;0.0958493
0.00208;-0.00755399;-0.00254911;0.0958493
0.0021;-0.00555824;0.00522769;0.0958493
0.00212;-0.00362575;0.0135871;0.0958493
0.00214;-0.00159244;0.0196281;0.0958493
0.00216;0.000232293;0.0225778;0.0958493
0.00218;0.00190975;0.0301725;0.0958493
0.0022;0.00393812;0.0431324;0.0958493
0.00222;0.00584687;0.0470371;0.0958493
0.00224;0.00770621;0.055089;0.0958493
0.00226;0.00960605;0.0568976;0.0958493
0.00228;0.0114476;0.069979;0.0958493
0.0023;0.013638;0.0757772;0.0958493
0.00232;0.0153709;0.0813326;0.0958493
0.00234;0.0172124;0.0885227;0.0958493
0.00236;0.0192566;0.0951585;0.0960094
0.00238;0.0211327;0.0994921;0.0958493
0.0024;0.0231571;0.109648;0.0958493
0.00242;0.0249532;0.118821;0.0958493
0.00244;0.0268096;0.125817;0.0958493
0.00246;0.0286472;0.135155;0.0958493
0.00248;0.0306034;0.127678;0.0958493
0.0025;0.0326486;0.15115;0.0958493
0.00252;0.0344378;0.153889;0.0958493
0.00254;0.0362593;0.151668;0.0958493
0.00256;0.0382947;0.16693;0.0958493
0.00258;0.0401026;0.180549;0.0958493
0.0026;0.0419136;0.168739;0.0958493
0.00262;0.0442995;0.192708;0.0958493
0.00264;0.0457075;0.194489;0.0958493
0.00266;0.0466642;0.203524;0.0962014
0.00268;0.0445924;0.187185;0.0983143
0.0027;0.0423485;0.180744;0.0969057
0.00272;0.0411347;0.181771;0.0980422
0.00274;0.0387247;0.166177;0.0968097
0.00276;0.0367379;0.164515;0.0958493
0.00278;0.0353865;0.157134;0.0965536
0.0028;0.0328521;0.144943;0.0960093
0.00282;0.0312153;0.143644;0.0962495
0.00284;0.0294854;0.137049;0.0958813
0.00286;0.0271357;0.127569;0.0958493
0.00288;0.0256006;0.119739;0.0958493
0.0029;0.0238224;0.111076;0.0958493
0.00292;0.0215479;0.105428;0.0958493
0.00294;0.0200048;0.0991643;0.0958493
0.00296;0.0179498;0.0857308;0.0958493
0.00298;0.0158878;0.0870701;0.0958493
0.003;0.014497;0.0765905;0.0958813
0.00302;0.0121949;0.0702784;0.0959933
0.00304;0.0101645;0.0687692;0.0958493
0.00306;0.00848512;0.0561127;0.0958493
0.00308;0.00631443;0.0484937;0.0958493
0.0031;0.00443137;0.0433955;0.0958493
0.00312;0.00280037;0.0329198;0.0958493
0.00314;0.000804625;0.0273401;0.0958493
0.00316;-0.00100529;0.0200246;0.0958493
0.00318;-0.00310581;0.0113091;0.0958493
0.0032;-0.00494933;0.0065346;0.0958493
0.00322;-0.00687786;0.00366181;0.0958493
0.00324;-0.00877772;-0.00747333;0.0958493
0.00326;-0.0107042;-0.0137206;0.0958493
0.00328;-0.0126694;-0.0179732;0.0958493
0.0033;-0.014587;-0.0247384;0.0958493
0.00332;-0.0165511;-0.0311355;0.0958493
0.00334;-0.0185241;-0.0384429;0.0958493
0.00336;-0.0204002;-0.0455602;0.0958493
0.00338;-0.022311;-0.0535028;0.0958493
0.0034;-0.024108;-0.0561532;0.0958493
0.00342;-0.0261373;-0.0649253;0.0958493
0.00344;-0.0280886;-0.0720951;0.0958493
0.00346;-0.0299538;-0.0782494;0.0958493
0.00348;-0.0319802;-0.0843065;0.0958493
0.0035;-0.0338426;-0.0920793;0.0958493
0.00352;-0.0357997;-0.0954094;0.0958493
0.00354;-0.037676;-0.102337;0.0958493
0.00356;-0.0395727;-0.111958;0.0958493
0.00358;-0.0414114;-0.111343;0.0958493
0.0036;-0.0435;-0.119019;0.0958493
0.00362;-0.0453032;-0.123502;0.0958493
0.00364;-0.0470932;-0.133739;0.0958493
0.00366;-0.0480184;-0.134621;0.0958493
0.00368;-0.0462836;-0.127071;0.0958493
0.0037;-0.0443422;-0.121342;0.0958493
0.00372;-0.0425145;-0.114079;0.0958493
0.00374;-0.0405632;-0.111445;0.0958493
0.00376;-0.038604;-0.103344;0.0958493
0.00378;-0.0367625;-0.0997428;0.0958493
0.0038;-0.0348646;-0.0919579;0.0958493
0.00382;-0.0328788;-0.0863822;0.0958493
0.00384;-0.0310105;-0.0741426;0.0958493
0.00386;-0.0291334;-0.0715813;0.0958493
0.00388;-0.0272483;-0.0658438;0.0958493
0.0039;-0.02531;-0.0599322;0.0958493
0.00392;-0.0233844;-0.053685;0.0958493
0.00394;-0.0214223;-0.0459324;0.0958493
0.00396;-0.0194819;-0.0435411;0.0958493
0.00398;-0.0175544;-0.038536;0.0958493
0.004;-0.0154894;-0.0308806;0.0958493
0.00402;-0.0137458;-0.0252766;0.0958493
0.00404;-0.0118104;-0.0119605;0.0958493
0.00406;-0.00973555;-0.0112444;0.0958493
0.00408;-0.00801462;0.000214449;0.0958493
0.0041;-0.00596352;0.000950857;0.0958493
0.00412;-0.00402213;0.0093548;0.0958493
0.00414;-0.00210349;0.0189686;0.0958493
0.00416;-0.000161122;0.0197818;0.0958493
0.00418;0.00175851;0.0325152;0.0958493
0.0042;0.00343102;0.0327094;0.0958493
0.00422;0.00549399;0.0426469;0.0958493
0.00424;0.00732169;0.0501162;0.0958493
0.00426;0.00912765;0.0560722;0.0958493
0.00428;0.0113843;0.0665114;0.0958493
0.0043;0.0130746;0.0671547;0.0958493
0.00432;0.0151494;0.0805072;0.0958493
0.00434;0.0169416;0.0896799;0.0958493
0.00436;0.0188523;0.0914764;0.0958493
0.00438;0.0207423;0.100148;0.0958493
0.0044;0.0227025;0.106443;0.0958493
0.00442;0.0245203;0.116964;0.0958493
0.00444;0.026429;0.121774;0.0958493
0.00446;0.0282725;0.129515;0.0958493
0.00448;0.0302692;0.140399;0.0958493
0.0045;0.0322214;0.142604;0.0958493
0.00452;0.034069;0.156204;0.0958493
0.00454;0.0360943;0.155471;0.0958493
0.00456;0.0379745;0.156333;0.0958493
0.00458;0.0396627;0.172862;0.0958493
0.0046;0.0417208;0.168265;0.0958493
0.00462;0.0436947;0.181666;0.0958493
0.00464;0.0452556;0.189289;0.0963135
0.00466;0.0468351;0.194833;0.0971298
0.00468;0.0451361;0.188784;0.0962655
0.0047;0.0430168;0.188294;0.0961534
0.00472;0.041441;0.179963;0.0958493
0.00474;0.0392605;0.17062;0.0958493
0.00476;0.0373644;0.163025;0.0958493
0.00478;0.0355893;0.154812;0.0960574
0.0048;0.0334878;0.148759;0.0958493
0.00482;0.0315977;0.145356;0.0958493
0.00484;0.0296396;0.135265;0.0958493
0.00486;0.0277902;0.12731;0.0958493
0.00488;0.025916;0.117595;0.0958493
0.0049;0.0238896;0.111801;0.0958493
0.00492;0.0220886;0.107192;0.0958493
0.00494;0.0202807;0.098266;0.0958493
0.00496;0.0182651;0.0916585;0.0958493
0.00498;0.0162812;0.0892065;0.0958493
0.005;0.0144437;0.0822794;0.0958493
0.00502;0.012356;0.0739928;0.0958493
0.00504;0.0105678;0.0650143;0.0958493
0.00506;0.00871248;0.062008;0.0958493
0.00508;0.00679088;0.0535595;0.0958493
0.0051;0.00496416;0.0407695;0.0958493
0.00512;0.00298225;0.0349066;0.0958493
0.00514;0.00117728;0.029343;0.0958493
0.00516;-0.00059902;0.0195067;0.0958493
0.00518;-0.00279938;0.0142305;0.0958493
0.0052;-0.00458359;0.00729934;0.0958493
0.00522;-0.00644194;0.00445082;0.0958493
0.00524;-0.00859485;-0.00909584;0.0958493
0.00526;-0.0103711;-0.0061219;0.0958493
0.00528;-0.0123293;-0.0167067;0.0958493
0.0053;-0.0142262;-0.0214165;0.0958493
0.00532;-0.0161933;-0.0300875;0.0958493
0.00534;-0.0179854;-0.0361244;0.0959133
0.00536;-0.019991;-0.0498451;0.0958493
0.00538;-0.0219195;-0.0501445;0.0958493
0.0054;-0.023848;-0.0532439;0.0958653
0.00542;-0.0257014;-0.061134;0.0958493
0.00544;-0.0277762;-0.0690282;0.0958493
0.00546;-0.029684;-0.0746321;0.0958493
0.00548;-0.0316007;-0.0827892;0.0958493
0.0055;-0.0334107;-0.0877661;0.0958493
0.00552;-0.0353866;-0.0911608;0.0958493
0.00554;-0.037254;-0.101171;0.0958493
0.00556;-0.0391814;-0.0998158;0.0958493
0.00558;-0.0411229;-0.108932;0.0958493
0.0056;-0.0429238;-0.117279;0.0958493
0.00562;-0.0449434;-0.119675;0.0958493
0.00564;-0.0468679;-0.127382;0.0958493
0.00566;-0.0480183;-0.13153;0.0958493
0.00568;-0.0467158;-0.127997;0.0958493
0.0057;-0.0448009;-0.121831;0.0958493
0.00572;-0.0427251;-0.116725;0.0958493
0.00574;-0.0408509;-0.109025;0.0958493
0.00576;-0.0390184;-0.104343;0.0958493
0.00578;-0.0370482;-0.0961013;0.0958493
0.0058;-0.0352691;-0.0915614;0.0958493
0.00582;-0.0333187;-0.0865481;0.0958493
0.00584;-0.0313536;-0.0784153;0.0958493
0.00586;-0.0294647;-0.0764974;0.0958493
0.00588;-0.0275361;-0.0671628;0.0958493
0.0059;-0.0254929;-0.0643993;0.0958493
0.00592;-0.0237018;-0.0570514;0.0958493
0.00594;-0.0217821;-0.044933;0.0958493
0.00596;-0.019907;-0.0436423;0.0958493
0.00598;-0.0180319;-0.0357603;0.0958493
0.006;-0.0159837;-0.0324221;0.0958493
0.00602;-0.014153;-0.0191668;0.0958493
0.00604;-0.0122334;-0.0190252;0.0958493
0.00606;-0.0101932;-0.00714963;0.0958493
0.00608;-0.0082904;-0.00439417;0.0958493
0.0061;-0.00651015;0.00180461;0.0958493
0.00612;-0.00434735;0.00803979;0.0958493
0.00614;-0.0025058;0.0150842;0.0958493
0.00616;-0.000592101;0.0228853;0.0958493
0.00618;0.00133248;0.0292621;0.0958493
0.0062;0.00319972;0.0390215;0.0958493
0.00622;0.00518163;0.0432053;0.0958493
0.00624;0.0068917;0.0518925;0.0958493
0.00626;0.00894181;0.0558861;0.0958493
0.00628;0.0108327;0.0655322;0.0958493
0.0063;0.0128196;0.0715529;0.0958493
0.00632;0.0146344;0.0738714;0.0958493
0.00634;0.0165867;0.0857874;0.0958493
0.00636;0.0184885;0.088551;0.0958493
0.00638;0.0204171;0.100289;0.0958493
0.0064;0.0224049;0.105942;0.0958493
0.00642;0.0239825;0.111412;0.0958493
0.00644;0.0261255;0.117409;0.0958493
0.00646;0.027879;0.132064;0.0958493
0.00648;0.0297927;0.133541;0.0958493
0.0065;0.0318695;0.140658;0.0958493
0.00652;0.0336123;0.147553;0.0958493
0.00654;0.0357156;0.159097;0.0958973
0.00656;0.037509;0.16483;0.0958493
0.00658;0.0394522;0.174707;0.0958653
0.0066;0.0414589;0.178745;0.0961694
0.00662;0.0432778;0.184535;0.09761
0.00664;0.0452032;0.194776;0.097498
0.00666;0.0466613;0.19444;0.0964575
0.00668;0.0453801;0.193687;0.0958493
0.0067;0.0435862;0.181929;0.0958493
0.00672;0.0413421;0.179587;0.0958493
0.00674;0.0397756;0.177195;0.0958493
0.00676;0.0378745;0.16309;0.0958493
0.00678;0.035616;0.158874;0.0958493
0.0068;0.0339286;0.150256;0.0958493
0.00682;0.032003;0.145121;0.0960093
0.00684;0.0301487;0.138283;0.0958493
0.00686;0.0282271;0.128969;0.0958493
0.00688;0.0261759;0.122709;0.0958493
0.0069;0.0244076;0.115823;0.0958493
0.00692;0.0224464;0.105913;0.0958493
0.00694;0.0205811;0.099755;0.0958493
0.00696;0.0187376;0.0949926;0.0958493
0.00698;0.016813;0.0859817;0.0958493
0.007;0.0149942;0.0781928;0.0958493
0.00702;0.013037;0.07042;0.0958493
0.00704;0.0110868;0.065427;0.0958493
0.00706;0.00902976;0.0562381;0.0958493
0.00708;0.00713685;0.0496792;0.0958493
0.0071;0.00532891;0.0420764;0.0958493
0.00712;0.0034241;0.0368123;0.0958493
0.00714;0.00165768;0.0276193;0.0958493
0.00716;-0.000288636;0.025402;0.0959773
0.00718;-0.00219048;0.0150721;0.0958493
0.0072;-0.00414273;0.0115235;0.0958493
0.00722;-0.00610388;0.00201096;0.0958493
0.00724;-0.00805119;0.00182888;0.0958813
0.00726;-0.00988085;-0.0157235;0.0958493
0.00728;-0.0120219;-0.014627;0.0958493
0.0073;-0.0138604;-0.0228367;0.0958493
0.00732;-0.0158038;-0.0264338;0.0958493
0.00734;-0.0176424;-0.0354366;0.0958493
0.00736;-0.019643;-0.0412995;0.0958493
0.00738;-0.0215419;-0.0500151;0.0958493
0.0074;-0.0234309;-0.053171;0.0958493
0.00742;-0.0253752;-0.0593779;0.0958493
0.00744;-0.0272089;-0.0673773;0.0958493
0.00746;-0.0292867;-0.0722327;0.0958493
0.00748;-0.0311312;-0.0759674;0.0958493
0.0075;-0.0331003;-0.0839505;0.0958493
0.00752;-0.035017;-0.0893927;0.0958493
0.00754;-0.0368279;-0.0966637;0.0958493
0.00756;-0.0387386;-0.103498;0.0958493
0.00758;-0.0407372;-0.107261;0.0958493
0.0076;-0.0426204;-0.115337;0.0958493
0.00762;-0.0444804;-0.118505;0.0958493
0.00764;-0.0463637;-0.123251;0.0958493
0.00766;-0.0480796;-0.132517;0.0958493
0.00768;-0.0470697;-0.124846;0.0958493
0.0077;-0.0452931;-0.123365;0.0958493
0.00772;-0.043268;-0.11766;0.0958493
0.00774;-0.0414529;-0.107333;0.0958493
0.00776;-0.0394543;-0.105193;0.0958493
0.00778;-0.037492;-0.0983793;0.0958493
0.0078;-0.0355132;-0.0919538;0.0958493
0.00782;-0.0334739;-0.0827771;0.0958493
0.00784;-0.032008;-0.0863701;0.0958493
0.00786;-0.0296593;-0.0653582;0.0958493
0.00788;-0.0280857;-0.0731634;0.0958493
0.0079;-0.0261245;-0.0654594;0.0958493
0.00792;-0.0236158;-0.0519329;0.0959613
0.00794;-0.0225887;-0.0529324;0.0963135
0.00796;-0.0203211;-0.0381192;0.0958653
0.00798;-0.0177531;-0.0378805;0.0959933
0.008;-0.016814;-0.0307875;0.0960414
0.00802;-0.0144328;-0.0205628;0.0958493
0.00804;-0.012185;-0.0219384;0.0961054
0.00806;-0.0110077;-0.00905538;0.0963135
0.00808;-0.00842681;-0.00410689;0.0959613
0.0081;-0.0066772;0.0060612;0.0958813
0.00812;-0.00517471;0.00859006;0.0960093
0.00814;-0.00260663;0.0147767;0.0959293
0.00816;-0.00104087;0.0197535;0.0958493
0.00818;0.000768051;0.027332;0.0958493
0.0082;0.003261;0.0362579;0.0958493
0.00822;0.00467355;0.0389001;0.0960254
0.00824;0.00659516;0.0477411;0.0958493
0.00826;0.00860572;0.056671;0.0958493
0.00828;0.010214;0.058767;0.0958493
0.0083;0.0124044;0.0685709;0.0958493
0.00832;0.0144219;0.0764408;0.0958493
0.00834;0.0161211;0.0849094;0.0958493
0.00836;0.0180357;0.0930706;0.0958493
0.00838;0.020072;0.0979545;0.0958493
0.0084;0.021797;0.102434;0.0958493
0.00842;0.0238391;0.112019;0.0958493
0.00844;0.0257973;0.120706;0.0958653
0.00846;0.0274155;0.126848;0.0958493
0.00848;0.0295723;0.134313;0.0958493
0.0085;0.0313684;0.140286;0.0958493
0.00852;0.033214;0.146436;0.0958493
0.00854;0.0351899;0.156422;0.0958493
0.00856;0.0369572;0.152;0.0958973
0.00858;0.0390579;0.17064;0.0967777
0.0086;0.0410862;0.179732;0.0981062
0.00862;0.0427863;0.184875;0.0961374
0.00864;0.0446744;0.192648;0.0958493
0.00866;0.0465733;0.199559;0.0958493
0.00868;0.0457004;0.194052;0.0958493
0.0087;0.0438243;0.18706;0.0958493
0.00872;0.0419887;0.181161;0.0958493
0.00874;0.0400651;0.174395;0.0958493
0.00876;0.0381287;0.162508;0.0958493
0.00878;0.0362327;0.159736;0.0958493
0.0088;0.0342242;0.1499;0.0958493
0.00882;0.0323708;0.140889;0.0958493
0.00884;0.0305163;0.139246;0.0958493
0.00886;0.0285769;0.128256;0.0958493
0.00888;0.026772;0.121487;0.0958493
0.0089;0.0248444;0.118327;0.0958493
0.00892;0.0228674;0.109219;0.0958493
0.00894;0.0210338;0.0970399;0.0958493
0.00896;0.0191448;0.0914359;0.0958493
0.00898;0.0171659;0.0857915;0.0958493
0.009;0.0155458;0.0813042;0.0958493
0.00902;0.0132357;0.0708692;0.0958493
0.00904;0.0113507;0.068842;0.0958493
0.00906;0.00948744;0.0640271;0.0958493
0.00908;0.00751346;0.0569057;0.0958493
0.0091;0.0057164;0.0456937;0.0958493
0.00912;0.00380368;0.0415908;0.0958493
0.00914;0.00195225;0.0306985;0.0958493
0.00916;0.000104779;0.0274737;0.0958493
0.00918;-0.001888;0.0128224;0.0958493
0.0092;-0.00386892;0.0133524;0.0958493
0.00922;-0.00572925;0.00427683;0.0958493
0.00924;-0.00765975;-0.00031965;0.0958493
0.00926;-0.00963966;-0.00815308;0.0958493
0.00928;-0.0115632;-0.016205;0.0958493
0.0093;-0.0135076;-0.02242;0.0958493
0.00932;-0.0153837;-0.0269436;0.0958493
0.00934;-0.0174091;-0.0358736;0.0958493
0.00936;-0.0191567;-0.0399036;0.0958493
0.00938;-0.0210714;-0.0470289;0.0958493
0.0094;-0.023085;-0.052374;0.0958493
0.00942;-0.0249582;-0.0618623;0.0958493
0.00944;-0.0270112;-0.063671;0.0958493
0.00946;-0.0288231;-0.0716177;0.0958493
0.00948;-0.0307557;-0.0787147;0.0958493
0.0095;-0.0327089;-0.0829349;0.0958493
0.00952;-0.0344634;-0.0885794;0.0958493
0.00954;-0.0364017;-0.0928683;0.0958493
0.00956;-0.038446;-0.102899;0.0958493
0.00958;-0.0403061;-0.105213;0.0958493
0.0096;-0.0421498;-0.110065;0.0958493
0.00962;-0.0441305;-0.116616;0.0958493
0.00964;-0.0460663;-0.124615;0.0958493
0.00966;-0.0478137;-0.131052;0.0958493
0.00968;-0.0474206;-0.128151;0.0958493
0.0097;-0.0456014;-0.126335;0.0958493
0.00972;-0.0436376;-0.118097;0.0958493
0.00974;-0.0417009;-0.107508;0.0958493
0.00976;-0.0397982;-0.106682;0.0958493
0.00978;-0.0378804;-0.0963238;0.0958493
0.0098;-0.0359343;-0.0956683;0.0958493
0.00982;-0.0341025;-0.088814;0.0958493
0.00984;-0.0319714;-0.0782454;0.0958493
0.00986;-0.0302248;-0.078294;0.0958493
0.00988;-0.0284504;-0.0707113;0.0958493
0.0099;-0.0265249;-0.0618057;0.0958493
0.00992;-0.0245519;-0.0535555;0.0958493
0.00994;-0.0224701;-0.0482752;0.0958493
0.00996;-0.0206602;-0.0454833;0.0958493
0.00998;-0.0187;-0.0397337;0.0958493
0.01;-0.0166569;-0.0404782;-0.0185838
0.01002;-0.0147728;-0.0397741;-0.102508
0.01004;-0.0127583;-0.0290395;-0.103164
0.01006;-0.0108802;-0.0263852;-0.100987
0.01008;-0.00900309;-0.0160512;-0.100011
0.0101;-0.00700834;-0.00953685;-0.101644
0.01012;-0.00514209;0.000416759;-0.101628
0.01014;-0.003433;0.0130692;-0.101276
0.01016;-0.0013216;0.0221165;-0.102188
0.01018;0.000469529;0.0309574;-0.103132
0.0102;0.00226461;0.0384752;-0.102556
0.01022;0.0041457;0.0484007;-0.101788
0.01024;0.00614342;0.0593132;-0.101644
0.01026;0.00788513;0.0667825;-0.101516
0.01028;0.00989371;0.0774725;-0.1027
0.0103;0.0117876;0.0844604;-0.101676
0.01032;0.0136292;0.0915453;-0.102044
0.01034;0.0154845;0.106508;-0.102748
0.01036;0.0173715;0.113002;-0.103052
0.01038;0.0192328;0.124445;-0.103164
0.0104;0.0211752;0.135916;-0.103004
