t;vds;corrente;vg
0.000499;-0.00839048;-0.011783;-0.219817
0.000998;-0.0088809;-0.0122289;-0.221204
0.001497;-0.00938917;-0.0123407;-0.216939
0.001996;-0.00980564;-0.012349;-0.21557
0.002495;-0.010226;-0.0123159;-0.210987
0.002994;-0.0107866;-0.0124773;-0.213056
0.003493;-0.0113679;-0.0131562;-0.214202
0.003992;-0.0118011;-0.013355;-0.21417
0.004491;-0.0123705;-0.0136406;-0.214424
0.00499;-0.0129311;-0.013653;-0.213342
0.005489;-0.0134156;-0.014245;-0.213374
0.005988;-0.0138785;-0.0144851;-0.211019
0.006487;-0.0143937;-0.0145183;-0.212483
0.006986;-0.0148309;-0.014688;-0.216048
0.007485;-0.0152838;-0.015371;-0.212419
0.007984;-0.0158226;-0.0154704;-0.213342
0.008483;-0.0162608;-0.0158636;-0.216843
0.008982;-0.01663;-0.0158844;-0.21417
0.009481;-0.0171224;-0.0160748;-0.215093
0.00998;-0.0176671;-0.016526;-0.217703
0.010479;-0.0180579;-0.0164143;-0.212546
0.010978;-0.018509;-0.0165426;-0.211974
0.011477;-0.0190537;-0.016613;-0.215316
0.011976;-0.0195155;-0.0171098;-0.216748
0.012475;-0.0199371;-0.017619;-0.218689
0.012974;-0.0204836;-0.0181985;-0.215379
0.013473;-0.0210255;-0.018211;-0.213215
0.013972;-0.0214172;-0.0181572;-0.213215
0.014471;-0.0219027;-0.0184262;-0.216875
0.01497;-0.0224526;-0.0186042;-0.219994
0.015469;-0.0228867;-0.0186995;-0.218912
0.015968;-0.0232548;-0.0189313;-0.214997
0.016467;-0.0237483;-0.018923;-0.214806
0.016966;-0.0243028;-0.0196516;-0.21487
0.017465;-0.0247272;-0.0203719;-0.214202
0.017964;-0.025203;-0.0205582;-0.21156
0.018463;-0.0257488;-0.0208811;-0.215156
0.018962;-0.0262135;-0.0206989;-0.211974
0.019461;-0.0266487;-0.0213696;-0.214743
0.01996;-0.0272212;-0.0213199;-0.213565
0.020459;-0.0277549;-0.0222059;-0.216175
0.020958;-0.0281389;-0.0226862;-0.215602
0.021457;-0.0287359;-0.0226903;-0.219453
0.021956;-0.0292097;-0.0227234;-0.22149
0.022455;-0.0295868;-0.0227441;-0.220886
0.022954;-0.0300949;-0.0227648;-0.218085
0.023453;-0.0305814;-0.0229676;-0.219199
0.023952;-0.0310385;-0.0236175;-0.218117
0.024451;-0.0314814;-0.0243213;-0.211973
0.02495;-0.031977;-0.0244827;-0.210764
0.025449;-0.0325739;-0.0246855;-0.210573
0.025948;-0.0330426;-0.0247725;-0.210414
0.026447;-0.033476;-0.0248511;-0.209555
0.026946;-0.0340394;-0.0251037;-0.208313
0.027445;-0.0344451;-0.0253852;-0.208886
0.027944;-0.0348871;-0.0259193;-0.207358
0.028443;-0.0354851;-0.0265818;-0.208281
0.028942;-0.0359441;-0.0260684;-0.20809
0.029441;-0.0364306;-0.0263748;-0.212929
0.02994;-0.0369292;-0.0268384;-0.21312
0.030439;-0.0374422;-0.026855;-0.210287
0.030938;-0.0379417;-0.0269585;-0.214934
0.031437;-0.0384578;-0.0270868;-0.214679
0.031936;-0.0390122;-0.0270289;-0.214233
0.032435;-0.0394506;-0.0274429;-0.211528
0.032934;-0.0399034;-0.0279809;-0.209937
0.033433;-0.0403497;-0.0278899;-0.208377
0.033932;-0.04091;-0.0283121;-0.209268
0.034431;-0.0413659;-0.028279;-0.208791
0.03493;-0.0417491;-0.0283121;-0.2107
0.035429;-0.0423883;-0.0286639;-0.210128
0.035928;-0.0429115;-0.0287881;-0.210255
0.036427;-0.0433586;-0.0289082;-0.207263
0.036926;-0.0439199;-0.0292436;-0.207963
0.037425;-0.0443602;-0.0294795;-0.207645
0.037924;-0.0448003;-0.0301004;-0.206945
0.038423;-0.0452832;-0.0302579;-0.207836
0.038922;-0.0457313;-0.0302993;-0.206467
0.039421;-0.046238;-0.0307836;-0.207868
0.03992;-0.0466459;-0.0309327;-0.206786
0.040419;-0.0471434;-0.0310734;-0.206785
0.040918;-0.0477116;-0.0310031;-0.20809
0.041417;-0.0481567;-0.0313301;-0.20965
0.041916;-0.0486041;-0.0312349;-0.209173
0.042415;-0.0489307;-0.031417;-0.212419
0.042914;-0.0484123;-0.0310734;-0.213183
0.043413;-0.0479424;-0.0309658;-0.210573
0.043912;-0.0474256;-0.0309865;-0.211687
0.044411;-0.0469183;-0.0309617;-0.209045
0.04491;-0.0464265;-0.0309658;-0.210764
0.045409;-0.0460095;-0.0309865;-0.217193
0.045908;-0.0455624;-0.0308623;-0.210319
0.046407;-0.0450619;-0.0306925;-0.210987
0.046906;-0.0445318;-0.030618;-0.212133
0.047405;-0.0440771;-0.0296368;-0.208186
0.047904;-0.0435944;-0.0299638;-0.209173
0.048403;-0.0430674;-0.03003;-0.209077
0.048902;-0.0426353;-0.0291649;-0.209586
0.049401;-0.0420935;-0.0290945;-0.213247
0.0499;-0.0414606;-0.0290158;-0.209841
0.050399;-0.0410027;-0.0287881;-0.211178
0.050898;-0.0405521;-0.0282459;-0.212133
0.051397;-0.0400455;-0.028308;-0.207072
0.051896;-0.0395531;-0.0279561;-0.2107
0.052395;-0.039043;-0.0271737;-0.207581
0.052894;-0.0386305;-0.0272317;-0.211433
0.053393;-0.0380808;-0.0267805;-0.211019
0.053892;-0.0375775;-0.0266355;-0.210923
0.054391;-0.0372478;-0.0264824;-0.211592
0.05489;-0.0366704;-0.0261925;-0.211433
0.055389;-0.0361878;-0.0259856;-0.216843
0.055888;-0.0356993;-0.0250126;-0.217607
0.056387;-0.0352483;-0.0259317;-0.217575
0.056886;-0.0347629;-0.0252238;-0.219071
0.057385;-0.034305;-0.0247932;-0.218912
0.057884;-0.0338509;-0.0248014;-0.21974
0.058383;-0.0332113;-0.0247642;-0.216366
0.058882;-0.032798;-0.0248014;-0.220536
0.059381;-0.0323747;-0.0244206;-0.215507
0.05988;-0.0318179;-0.0243461;-0.218753
0.060379;-0.0312841;-0.0239943;-0.217066
0.060878;-0.0308271;-0.0237418;-0.216652
0.061377;-0.0303564;-0.0243585;-0.218212
0.061876;-0.0298927;-0.0238783;-0.216652
0.062375;-0.0293942;-0.0228725;-0.215443
0.062874;-0.0289817;-0.0232036;-0.218976
0.063373;-0.0284477;-0.022769;-0.219039
0.063872;-0.0279395;-0.0226116;-0.217162
0.064371;-0.0274897;-0.0225619;-0.21818
0.06487;-0.026931;-0.0216883;-0.218021
0.065369;-0.0264237;-0.0217671;-0.220249
0.065868;-0.0259312;-0.0210384;-0.221363
0.066367;-0.0254685;-0.0207444;-0.219772
0.066866;-0.0249413;-0.0204795;-0.219899
0.067365;-0.0245239;-0.020492;-0.220249
0.067864;-0.0241104;-0.0205789;-0.220886
0.068363;-0.0235884;-0.0197882;-0.217607
0.068862;-0.0231008;-0.01913;-0.219358
0.069361;-0.0226608;-0.0189933;-0.221045
0.06986;-0.0222334;-0.0188485;-0.217512
0.070359;-0.0216404;-0.0188237;-0.219071
0.070858;-0.0211646;-0.0188071;-0.219071
0.071357;-0.0206968;-0.0186249;-0.22184
0.071856;-0.0202005;-0.0184676;-0.218116
0.072355;-0.0196409;-0.017797;-0.214488
0.072854;-0.0192501;-0.0177763;-0.219071
0.073353;-0.018879;-0.0173209;-0.216334
0.073852;-0.0183243;-0.016526;-0.218626
0.074351;-0.017825;-0.0165302;-0.217894
0.07485;-0.0174402;-0.0165095;-0.216175
0.075349;-0.0169181;-0.0163729;-0.21487
0.075848;-0.0164286;-0.0161162;-0.21818
0.076347;-0.0160289;-0.0154207;-0.218276
0.076846;-0.0155324;-0.0151682;-0.218944
0.077345;-0.0149592;-0.0150564;-0.219008
0.077844;-0.0145457;-0.0147087;-0.215411
0.078343;-0.0140759;-0.0144934;-0.215506
0.078842;-0.013612;-0.0144769;-0.216239
0.079341;-0.0130228;-0.0140836;-0.212101
0.07984;-0.0126527;-0.0141043;-0.211592
0.080339;-0.0120972;-0.0136158;-0.212355
0.080838;-0.0115248;-0.0127464;-0.213119
0.081337;-0.0110471;-0.0123986;-0.209905
0.081836;-0.0106484;-0.0124607;-0.21417
0.082335;-0.0101175;-0.0123945;-0.216143
0.082834;-0.00963101;-0.0122331;-0.216334
0.083333;-0.00913552;-0.0118605;-0.215443
0.083832;-0.00862436;-0.0121461;-0.218339
0.084331;-0.00804996;-0.0116121;-0.216302
0.08483;-0.00760197;-0.0106641;-0.21191
0.085329;-0.00717068;-0.0108711;-0.215475
0.085828;-0.00654794;-0.0104198;-0.212992
0.086327;-0.00612756;-0.0103991;-0.213438
0.086826;-0.005716;-0.0102874;-0.212992
0.087325;-0.00514361;-0.0103246;-0.216875
0.087824;-0.00463932;-0.0102128;-0.214456
0.088323;-0.00410837;-0.00897509;-0.209363
0.088822;-0.00368994;-0.00987754;-0.214074
0.089321;-0.00315014;-0.00912825;-0.213883
0.08982;-0.0027001;-0.00898752;-0.21713
0.090319;-0.00217015;-0.00844104;-0.216939
0.090818;-0.00166093;-0.00826302;-0.214806
0.091317;-0.00124643;-0.00822576;-0.217926
0.091816;-0.000805291;-0.00796909;-0.216843
0.092315;-0.000241785;-0.00766275;-0.21783
0.092814;0.000304945;-0.00702934;-0.216302
0.093313;0.000713511;-0.00655327;-0.217639
0.093812;0.00118031;-0.00633386;-0.212419
0.094311;0.00164019;-0.00628833;-0.214997
0.09481;0.00210403;-0.00618484;-0.212101
0.095309;0.00250964;-0.00612274;-0.215061
0.095808;0.00311361;-0.00577915;-0.21382
0.096307;0.00370474;-0.00543555;-0.215697
0.096806;0.00410441;-0.00514577;-0.21156
0.097305;0.00469656;-0.00441303;-0.208918
0.097804;0.00523244;-0.00417291;-0.210891
0.098303;0.00568741;-0.00444201;-0.20895
0.098802;0.00614036;-0.00414393;-0.211974
0.099301;0.00665455;-0.00412323;-0.213024
0.0998;0.00710657;-0.00398248;-0.213119
0.100299;0.00748747;-0.00410253;-0.214997
0.100798;0.00809045;-0.00306346;-0.211655
0.101297;0.00854045;-0.00256254;-0.213851
0.101796;0.0090181;-0.00243834;-0.211241
0.102295;0.0095668;-0.00224791;-0.212228
0.102794;0.0101471;-0.0020492;-0.213597
0.103293;0.0106011;-0.00247147;-0.214679
0.103792;0.0110245;-0.00190016;-0.217575
0.104291;0.0115465;-0.00197468;-0.215475
0.10479;0.0121159;-0.00160624;-0.210669
0.105289;0.0125087;-0.000943873;-0.211814
0.105788;0.0129617;-0.000442959;-0.209682
0.106287;0.013465;-0.000173872;-0.213151
0.106786;0.0139239;-0.000178011;-0.213565
0.107285;0.0143651;0;-0.211974
0.107784;0.0149285;4.55378e-05;-0.212769
0.108283;0.015416;0.000273227;-0.211719
0.108782;0.0159262;0.000890056;-0.207772
0.109281;0.0164128;0.000852798;-0.209204
0.10978;0.0168372;0.00130817;-0.210382
0.110279;0.017303;0.0016021;-0.209968
0.110778;0.017744;0.00206576;-0.207963
0.111277;0.0182346;0.00206576;-0.209459
0.111776;0.0187073;0.00235141;-0.211655
0.112275;0.0191277;0.00272812;-0.215093
0.112774;0.0195925;0.00335738;-0.211273
0.113273;0.0200535;0.00341947;-0.215475
0.113772;0.020528;0.00380447;-0.210637
0.114271;0.0210443;0.00406527;-0.216907
0.11477;0.0216225;0.00424743;-0.211082
0.115269;0.0221554;0.00433023;-0.208091
0.115768;0.0225424;0.00459517;-0.207581
0.116267;0.0229932;0.00528651;-0.207804
0.116766;0.0235608;0.0056591;-0.20965
0.117265;0.0239772;0.00577087;-0.212865
0.117764;0.0244064;0.00618898;-0.211528
0.118263;0.0249997;0.00615172;-0.212387
0.118762;0.0254062;0.00622209;-0.210096
0.119261;0.0258652;0.00619312;-0.209586
0.11976;0.0263684;0.00634629;-0.21487
0.120259;0.0269528;0.0064415;-0.214329
0.120758;0.0273396;0.0066278;-0.21226
0.121257;0.0278171;0.00702109;-0.213533
0.121756;0.0283847;0.00772484;-0.21121
0.122255;0.0288454;0.00773726;-0.212515
0.122754;0.0292986;0.0081885;-0.211592
0.123253;0.0298729;0.00825474;-0.211496
0.123752;0.0304452;0.00837064;-0.210509
0.124251;0.0308451;0.0084783;-0.210414
0.12475;0.0313866;0.00890054;-0.210446
0.125249;0.0319889;0.00932696;-0.209173
0.125748;0.0323391;0.0094429;-0.21035
0.126247;0.0327692;0.00948839;-0.210828
0.126746;0.0332698;0.00987752;-0.211019
0.127245;0.033772;0.0101715;-0.211019
0.127744;0.0342329;0.0103081;-0.214743
0.128243;0.0347411;0.0102832;-0.215061
0.128742;0.0353124;0.0105068;-0.211942
0.129241;0.0357457;0.0110739;-0.207581
0.12974;0.0362135;0.0110325;-0.212292
0.130239;0.0367792;0.0115003;-0.211496
0.130738;0.0372834;0.012291;-0.208695
0.131237;0.0377107;0.0122703;-0.212578
0.131736;0.0381292;0.0119598;-0.211082
0.132235;0.038666;0.0120219;-0.214584
0.132734;0.0390941;0.0123614;-0.210446
0.133233;0.0395769;0.0125767;-0.209236
0.133732;0.0400911;0.0129948;-0.208727
0.134231;0.0406514;0.0132308;-0.211719
0.13473;0.0411024;0.0132473;-0.212546
0.135229;0.0416376;0.01386;-0.210382
0.135728;0.04221;0.0143237;-0.209491
0.136227;0.0425344;0.0143858;-0.208631
0.136726;0.0430447;0.0145224;-0.208918
0.137225;0.0435688;0.0146714;-0.209459
0.137724;0.0440047;0.0154497;-0.208631
0.138223;0.0444727;0.0152551;-0.213088
0.138722;0.0449791;0.0157685;-0.209809
0.139221;0.0454905;0.0164557;-0.208632
0.13972;0.0458761;0.0164225;-0.210764
0.140219;0.0463861;0.0164847;-0.207868
0.140718;0.0469372;0.0171677;-0.208568
0.141217;0.0473702;0.0177018;-0.210191
0.141716;0.0478567;0.0182027;-0.208822
0.142215;0.0482692;0.0183434;-0.2086
0.142714;0.047975;0.0182482;-0.209014
0.143213;0.047473;0.0179543;-0.211146
0.143712;0.0471068;0.0176231;-0.209714
0.144211;0.0465312;0.0167786;-0.212164
0.14471;0.0460007;0.0164474;-0.210987
0.145209;0.0455328;0.0162197;-0.213279
0.145708;0.0451735;0.0158719;-0.209682
0.146207;0.0445871;0.0155242;-0.209395
0.146706;0.0441106;0.0148204;-0.211751
0.147205;0.0437523;0.0146921;-0.214647
0.147704;0.0432499;0.0145058;-0.208472
0.148203;0.04266;0.0142864;-0.209045
0.148702;0.0422129;0.0141953;-0.208886
0.149201;0.0417707;0.0139635;-0.211719
0.1497;0.0412967;0.0137938;-0.212801
0.150199;0.0407168;0.013446;-0.213883
0.150698;0.0402875;0.0127878;-0.213215
0.151197;0.0397494;0.0126429;-0.208027
0.151696;0.039268;0.0126056;-0.206913
0.152195;0.0388031;0.0124235;-0.208504
0.152694;0.0383887;0.0124442;-0.208313
0.153193;0.0378618;0.011848;-0.212037
0.153692;0.037383;0.0112602;-0.217926
0.154191;0.036938;0.0109539;-0.215952
0.15469;0.0364483;0.0108048;-0.211337
0.155189;0.0359037;0.010453;-0.214806
0.155688;0.0354515;0.0102542;-0.21452
0.156187;0.0349157;0.010188;-0.208918
0.156686;0.0343622;0.0100638;-0.21557
0.157185;0.0339111;0.0101673;-0.216048
0.157684;0.0334543;0.00928971;-0.214456
0.158183;0.0329271;0.00866045;-0.213501
0.158682;0.0324546;0.00846588;-0.213119
0.159181;0.0319938;0.00826302;-0.215475
0.15968;0.0315376;0.00826302;-0.212801
0.160179;0.0309762;0.00824646;-0.209173
0.160678;0.0305073;0.00816366;-0.211178
0.161177;0.0300565;0.00815124;-0.208441
0.161676;0.0294347;0.00717839;-0.211433
0.162175;0.0289846;0.00711214;-0.208059
0.162674;0.0285208;0.00662364;-0.209395
0.163173;0.0280017;0.00649118;-0.208409
0.163672;0.0274739;0.00632145;-0.209395
0.164171;0.0270149;0.0064622;-0.212833
0.16467;0.0265944;0.00642494;-0.21191
0.165169;0.0260487;0.00619726;-0.206977
0.165668;0.025572;0.00592403;-0.209236
0.166167;0.0251635;0.0060441;-0.206786
0.166666;0.0246176;0.00525757;-0.207931
0.167165;0.0241095;0.00457862;-0.209937
0.167664;0.0236881;0.00426399;-0.210732
0.168163;0.0232083;0.00414393;-0.212483
0.168662;0.0227033;0.00423501;-0.211433
0.169161;0.022258;0.00413151;-0.207868
0.16966;0.0218022;0.00407769;-0.208282
0.170159;0.021209;0.00410253;-0.20825
0.170658;0.020751;0.00393694;-0.21347
0.171157;0.0202736;0.00411081;-0.21312
0.171656;0.0198086;0.0037341;-0.218912
0.172155;0.0192768;0.00374238;-0.217703
0.172654;0.018807;0.00254599;-0.217894
0.173153;0.0183944;0.00234727;-0.215602
0.173652;0.0178832;0.00223549;-0.210828
0.174151;0.0174461;0.00204506;-0.214965
0.17465;0.0169418;0.00163108;-0.216143
0.175149;0.0165036;0.000960432;-0.214743
0.175648;0.0160229;0.000981131;-0.212037
0.176147;0.0155966;0.000546454;-0.212483
0.176646;0.0150796;9.10756e-05;-0.212419
0.177145;0.0144845;0;-0.212897
0.177644;0.0141351;-8.2796e-05;-0.214424
0.178143;0.0137088;-0.000699626;-0.216239
0.178642;0.0131314;-0.00112602;-0.216684
0.179141;0.0125807;-0.00172215;-0.216653
0.17964;0.012187;-0.0018836;-0.219899
0.180139;0.0116876;-0.00189188;-0.216716
0.180638;0.0111478;-0.0020285;-0.21888
0.181137;0.0106968;-0.00233898;-0.215825
0.181636;0.0102191;-0.00254183;-0.218849
0.182135;0.00958166;-0.00279023;-0.219453
0.182634;0.00914243;-0.00255426;-0.217066
0.183133;0.0087023;-0.00337394;-0.216748
0.183632;0.00810325;-0.00385;-0.212865
0.184131;0.00761184;-0.00415221;-0.213438
0.18463;0.0072605;-0.00416463;-0.212897
0.185129;0.00676308;-0.00429711;-0.209236
0.185628;0.00621144;-0.00440888;-0.2093
0.186127;0.00577621;-0.00439233;-0.212451
0.186626;0.00532421;-0.00459105;-0.212515
0.187125;0.00476665;-0.00511263;-0.209459
0.187624;0.00420015;-0.00606064;-0.209618
0.188123;0.00378764;-0.00619726;-0.213279
0.188622;0.00324784;-0.00616414;-0.214106
0.189121;0.00265766;-0.00612688;-0.212292
0.18962;0.00223331;-0.00625107;-0.214743
0.190119;0.00178922;-0.00641666;-0.214775
0.190618;0.00131057;-0.00684719;-0.214074
0.191117;0.000863517;-0.00738952;-0.217607
0.191616;0.000420409;-0.00729431;-0.214392
0.192115;-0.000115465;-0.00795253;-0.214106
0.192614;-0.00061581;-0.00824232;-0.213406
0.193113;-0.00106879;-0.0082506;-0.210064
0.193612;-0.00152868;-0.0082299;-0.209077
0.194111;-0.00200237;-0.00826302;-0.213056
0.19461;-0.00249385;-0.00826302;-0.209204
0.195109;-0.00297348;-0.00844518;-0.207549
0.195608;-0.00345409;-0.00828372;-0.209045
0.196107;-0.00394948;-0.00847829;-0.206881
0.196606;-0.00441331;-0.00993964;-0.20965
0.197105;-0.00488506;-0.00972025;-0.208632
0.197604;-0.00538541;-0.00998516;-0.208886
0.198103;-0.00590648;-0.0101052;-0.208663
0.198602;-0.00639499;-0.0103288;-0.208663
0.199101;-0.00701478;-0.0105523;-0.215252
0.1996;-0.00749043;-0.0106144;-0.214297
0.200099;-0.00793449;-0.0105813;-0.21121
0.200598;-0.00848224;-0.0114796;-0.212165
0.201097;-0.00899046;-0.0115169;-0.209109
0.201596;-0.00947206;-0.0118729;-0.211623
0.202095;-0.00998623;-0.0122124;-0.213565
0.202594;-0.0104984;-0.0123945;-0.214965
0.203093;-0.010984;-0.0126429;-0.214138
0.203592;-0.0114992;-0.0127464;-0.213947
0.204091;-0.0119373;-0.0126388;-0.211528
0.20459;-0.0125324;-0.0141622;-0.214838
0.205089;-0.0129676;-0.0144562;-0.212324
0.205588;-0.0134985;-0.014452;-0.215889
0.206087;-0.0140335;-0.014601;-0.218403
0.206586;-0.0144934;-0.0145472;-0.217321
0.207085;-0.014895;-0.0147459;-0.218307
0.207584;-0.0154348;-0.0148701;-0.212196
0.208083;-0.0159657;-0.0155656;-0.210987
0.208582;-0.0163881;-0.0161121;-0.213119
0.209081;-0.0168175;-0.016348;-0.211432
0.20958;-0.0173267;-0.016526;-0.211082
0.210079;-0.0177223;-0.0165509;-0.2107
0.210578;-0.018201;-0.0167413;-0.21226
0.211077;-0.0186757;-0.0168034;-0.211623
0.211576;-0.0191356;-0.0169483;-0.208504
0.212075;-0.0195274;-0.0177225;-0.209204
0.212574;-0.0200052;-0.0178715;-0.212005
0.213073;-0.0206237;-0.0184469;-0.214774
0.213572;-0.021062;-0.018389;-0.211655
0.214071;-0.0214873;-0.0179833;-0.208536
0.21457;-0.0219935;-0.0185877;-0.209555
0.215069;-0.0225128;-0.018567;-0.215507
0.215568;-0.0228728;-0.0186249;-0.211783
0.216067;-0.0233565;-0.0188691;-0.214584
0.216566;-0.0238864;-0.0194487;-0.216461
0.217065;-0.0242524;-0.0196019;-0.213374
0.217564;-0.0248319;-0.0198627;-0.216716
0.218063;-0.0253372;-0.0199124;-0.214393
0.218562;-0.0257546;-0.020641;-0.214583
0.219061;-0.0261711;-0.0206575;-0.216971
0.21956;-0.0268087;-0.0208935;-0.215857
0.220059;-0.0273574;-0.0216718;-0.212451
0.220558;-0.0278152;-0.0217878;-0.212897
0.221057;-0.0282091;-0.0221645;-0.209109
0.221556;-0.0288148;-0.0224543;-0.209905
0.222055;-0.0292404;-0.0226406;-0.210828
0.222554;-0.0297525;-0.0225702;-0.211305
0.223053;-0.0302645;-0.0227317;-0.215156
0.223552;-0.0306663;-0.0227193;-0.212483
0.224051;-0.0311322;-0.0227524;-0.214297
0.22455;-0.0316364;-0.0227483;-0.215666
0.225049;-0.0320924;-0.0228435;-0.213565
0.225548;-0.0326518;-0.0232698;-0.214647
0.226047;-0.0331473;-0.0233071;-0.211528
0.226546;-0.0336891;-0.0240439;-0.210923
0.227045;-0.0341273;-0.0246938;-0.212706
0.227544;-0.03453;-0.0245489;-0.211687
0.228043;-0.0350618;-0.0247311;-0.21643
0.228542;-0.0355394;-0.0247393;-0.214297
0.229041;-0.035958;-0.0249298;-0.213597
0.22954;-0.0364938;-0.0250043;-0.211655
0.230039;-0.037019;-0.0255633;-0.210732
0.230538;-0.0374826;-0.0263126;-0.214711
0.231037;-0.0379171;-0.0266024;-0.217671
0.231536;-0.0384963;-0.0267308;-0.212992
0.232035;-0.0389856;-0.0268095;-0.214106
0.232534;-0.0394051;-0.0268674;-0.217894
0.233033;-0.0399044;-0.0269502;-0.214234
0.233532;-0.0404217;-0.0279975;-0.215538
0.234031;-0.0408626;-0.0278816;-0.212865
0.23453;-0.0412919;-0.0287385;-0.209268
0.235029;-0.0418548;-0.0285604;-0.213692
0.235528;-0.0424249;-0.0290116;-0.210605
0.236027;-0.0429757;-0.0292311;-0.212101
0.236526;-0.0434919;-0.0290738;-0.213851
0.237025;-0.0439938;-0.0294092;-0.215538
0.237524;-0.044371;-0.0292353;-0.210318
0.238023;-0.0449376;-0.0295913;-0.216525
0.238522;-0.045456;-0.0299846;-0.218021
0.239021;-0.0458614;-0.030763;-0.21923
0.23952;-0.0462755;-0.0307381;-0.220026
0.240019;-0.0467763;-0.0309699;-0.218944
0.240518;-0.0473032;-0.031003;-0.217225
0.241017;-0.0477412;-0.0310196;-0.218339
0.241516;-0.0482416;-0.0310734;-0.217544
0.242015;-0.0488033;-0.0311479;-0.218244
0.242514;-0.048838;-0.0310776;-0.215507
0.243013;-0.0483205;-0.0310983;-0.216843
0.243512;-0.0478754;-0.0309865;-0.216652
0.244011;-0.0473644;-0.0309865;-0.218148
0.24451;-0.046789;-0.0309368;-0.219453
0.245009;-0.0463209;-0.0307298;-0.216589
0.245508;-0.0459129;-0.0304939;-0.219867
0.246007;-0.0453848;-0.030647;-0.21818
0.246506;-0.0449246;-0.0304938;-0.219199
0.247005;-0.0444203;-0.0295582;-0.213374
