t;vds;corrente;vg
0.000499;0.0209308;0.00360218;0.680995
0.000998;0.0213265;0.00392452;0.693589
0.001497;0.0218218;0.00369683;0.693589
0.001996;0.0223332;0.00411495;0.693589
0.002495;0.0227959;0.00406527;0.693589
0.002994;0.0232647;0.00416049;0.693589
0.003493;0.0238035;0.00488083;0.693589
0.003992;0.0242169;0.00521201;0.693589
0.004491;0.0247272;0.00553078;0.693589
0.00499;0.0252207;0.00584953;0.693589
0.005489;0.0256846;0.00615172;0.693589
0.005988;0.0261385;0.00620139;0.693589
0.006487;0.0265816;0.00632559;0.693589
0.006986;0.0271452;0.00630075;0.693589
0.007485;0.0276464;0.00714527;0.693589
0.007984;0.0280826;0.0072943;0.693589
0.008483;0.0285455;0.00796494;0.693589
0.008982;0.0290685;0.00794425;0.693589
0.009481;0.0295888;0.00830856;0.693589
0.00998;0.0301018;0.00826302;0.693589
0.010479;0.0305873;0.0084369;0.693589
0.010978;0.0310937;0.00829199;0.693589
0.011477;0.0315811;0.00879294;0.693589
0.011976;0.0320155;0.00957536;0.693589
0.012475;0.0324802;0.0103039;0.693589
0.012974;0.0330061;0.0102501;0.693589
0.013473;0.0334573;0.0100183;0.693589
0.013972;0.033988;0.0102046;0.693589
0.014471;0.0343909;0.0102377;0.693589
0.01497;0.0350115;0.0103288;0.693589
0.015469;0.0355216;0.0106061;0.693589
0.015968;0.0360419;0.0111402;0.693589
0.016467;0.0364612;0.0110656;0.693589
0.016966;0.0369953;0.011579;0.693589
0.017465;0.0374896;0.0123697;0.693589
0.017964;0.0379121;0.0123573;0.693589
0.018463;0.0384598;0.0124732;0.693589
0.018962;0.0389165;0.0128458;0.693589
0.019461;0.0393696;0.0133839;0.693589
0.01996;0.0399015;0.0133715;0.693589
0.020459;0.0403853;0.0136158;0.693589
0.020958;0.0408626;0.0136447;0.693589
0.021457;0.041365;0.0144686;0.693589
0.021956;0.0418528;0.0145058;0.693589
0.022455;0.0423313;0.0146011;0.693589
0.022954;0.0427516;0.0147087;0.693589
0.023453;0.0432658;0.0147087;0.693589
0.023952;0.043769;0.0152427;0.693589
0.024451;0.044215;0.0147915;0.693589
0.02495;0.0446661;0.0144769;0.693589
0.025449;0.0452309;0.015164;0.693589
0.025948;0.0456651;0.015342;0.693589
0.026447;0.0461393;0.0160168;0.693589
0.026946;0.0466785;0.015963;0.693589
0.027445;0.0471;0.016435;0.693589
0.027944;0.0475665;0.0166006;0.693589
0.028443;0.0480383;0.0169607;0.693589
0.028942;0.0482435;0.0173085;0.693589
0.029441;0.0477787;0.0171139;0.693589
0.02994;0.0473111;0.0168034;0.693589
0.030439;0.046869;0.0166213;0.693589
0.030938;0.0463515;0.0164101;0.693589
0.031437;0.0459049;0.0165467;0.693589
0.031936;0.0455141;0.0162776;0.693589
0.032435;0.0450055;0.0160458;0.693589
0.032934;0.0445594;0.0162073;0.693589
0.033433;0.0440979;0.0152924;0.693589
0.033932;0.0435687;0.0150523;0.693589
0.034431;0.0430753;0.0146176;0.693589
0.03493;0.0425129;0.0144562;0.693589
0.035429;0.0421536;0.0143402;0.693589
0.035928;0.0416235;0.0143858;0.693589
0.036427;0.0410964;0.0141125;0.693589
0.036926;0.0406468;0.0131148;0.693589
0.037425;0.0400979;0.0128002;0.693589
0.037924;0.0396074;0.0124939;0.693589
0.038423;0.0391921;0.0123945;0.693589
0.038922;0.0387745;0.0124235;0.693589
0.039421;0.0382032;0.0119102;0.693589
0.03992;0.0377355;0.0116121;0.693589
0.040419;0.0372705;0.0109497;0.693589
0.040918;0.036698;0.0107634;0.693589
0.041417;0.0361681;0.0103991;0.693589
0.041916;0.0357142;0.0103453;0.693589
0.042415;0.0352888;0.0103329;0.693589
0.042914;0.0347145;0.010039;0.693589
0.043413;0.0342694;0.0097244;0.693589
0.043912;0.0337779;0.00991481;0.693589
0.044411;0.0332567;0.00897506;0.693589
0.04491;0.0328187;0.00879707;0.693589
0.045409;0.032422;0.00865632;0.693589
0.045908;0.031894;0.00826716;0.693589
0.046407;0.0313226;0.00838308;0.693589
0.046906;0.03092;0.00826302;0.693589
0.047405;0.0303051;0.0082713;0.693589
0.047904;0.0297299;0.00824232;0.693589
0.048403;0.0293014;0.00812227;0.693589
0.048902;0.0288465;0.00803532;0.693589
0.049401;0.0282967;0.00715769;0.693589
0.0499;0.0279169;0.00644563;0.693589
0.050399;0.027466;0.00628833;0.693589
0.050898;0.0268974;0.00619726;0.693589
0.051397;0.0263843;0.00609791;0.693589
0.051896;0.0259351;0.00611446;0.693589
0.052395;0.0255188;0.00619726;0.693589
0.052894;0.0249305;0.00597785;0.693589
0.053393;0.0244401;0.00584125;0.693589
0.053892;0.0239378;0.00459104;0.693589
0.054391;0.0233959;0.00425985;0.693589
0.05489;0.0230456;0.00435093;0.693589
0.055389;0.0225868;0.00416877;0.693589
0.055888;0.0220558;0.00418119;0.693589
0.056387;0.021594;0.00416049;0.693589
0.056886;0.0210353;0.00411909;0.693589
0.057385;0.0205932;0.00404044;0.693589
0.057884;0.0200643;0.00399904;0.693589
0.058383;0.0196291;0.00338221;0.693589
0.058882;0.0192176;0.00319179;0.693589
0.059381;0.0186925;0.00240523;0.693589
0.05988;0.0182148;0.00205334;0.693589
0.060379;0.0177578;0.0020699;0.693589
0.060878;0.0172685;0.00208232;0.693589
0.061377;0.0168431;0.00206576;0.693589
0.061876;0.0163881;0.00201608;0.693589
0.062375;0.0159193;0.00107635;0.693589
0.062874;0.0154051;0.00101839;0.693589
0.063373;0.0148773;0.000231829;0.693589
0.063872;0.0144489;0.00041398;0.693589
0.064371;0.0139801;2.89786e-05;0.693589
0.06487;0.0135104;8.2796e-06;0.693589
0.065369;0.0130564;-0.000339464;0.693589
0.065868;0.0125363;-0.000248388;0.693589
0.066367;0.0120913;-0.000852798;0.693589
0.066866;0.0116551;-0.000894196;0.693589
0.067365;0.0110471;-0.0019664;0.693589
0.067864;0.0105398;-0.00191258;0.693589
0.068363;0.0100385;-0.00201608;0.693589
0.068862;0.00956389;-0.00206162;0.693589
0.069361;0.00898649;-0.00205748;0.693589
0.06986;0.0085247;-0.00212785;0.693589
0.070359;0.0080697;-0.00213199;0.693589
0.070858;0.00751119;-0.00312969;0.693589
0.071357;0.00702462;-0.0039535;0.693589
0.071856;0.00667919;-0.00412737;0.693589
0.072355;0.00610782;-0.00418533;0.693589
0.072854;0.00561436;-0.00431365;0.693589
0.073353;0.00517025;-0.00465313;0.693589
0.073852;0.00463931;-0.00531136;0.693589
0.074351;0.00402843;-0.0056591;0.693589
0.07485;0.00358633;-0.00576672;0.693589
0.075349;0.00306131;-0.0056922;0.693589
0.075848;0.00255799;-0.00606893;0.693589
0.076347;0.00205961;-0.00621381;0.693589
0.076846;0.00160862;-0.00627591;0.693589
0.077345;0.00121879;-0.00620553;0.693589
0.077844;0.000643444;-0.00686377;0.693589
0.078343;0.000338499;-0.00745574;0.693589
0.078842;-0.000176651;-0.0066485;0.693589
0.079341;-0.000744104;-0.00705419;0.693589
0.07984;-0.00127012;-0.00777866;0.693589
0.080339;-0.00173;-0.0082713;0.693589
0.080838;-0.00224416;-0.00824646;0.693589
0.081337;-0.00276919;-0.00847002;0.693589
0.081836;-0.00316789;-0.0082713;0.693589
0.082335;-0.00367908;-0.00926071;0.693589
0.082834;-0.00421494;-0.00985686;0.693589
0.083333;-0.00454851;-0.00936833;0.693589
0.083832;-0.00511106;-0.00984858;0.693589
0.084331;-0.00563214;-0.0102087;0.693589
0.08483;-0.0060772;-0.0101756;0.693589
0.085329;-0.00661803;-0.0103619;0.693589
0.085828;-0.00719045;-0.0105358;0.693589
0.086327;-0.00766804;-0.010751;0.693589
0.086826;-0.0080559;-0.0109414;0.693589
0.087325;-0.00857203;-0.0115045;0.693589
0.087824;-0.00913951;-0.0116576;0.693589
0.088323;-0.00954212;-0.0120882;0.693589
0.088822;-0.0100859;-0.0125021;0.693589
0.089321;-0.0106168;-0.0124897;0.693589
0.08982;-0.0111232;-0.0126098;0.693589
0.090319;-0.0115643;-0.0126884;0.693589
0.090818;-0.0120902;-0.0135288;0.693589
0.091317;-0.0126488;-0.0133922;0.693589
0.091816;-0.0130781;-0.014245;0.693589
0.092315;-0.0135696;-0.0141374;0.693589
0.092814;-0.014146;-0.0145265;0.693589
0.093313;-0.0145832;-0.0145224;0.693589
0.093812;-0.015036;-0.0145721;0.693589
0.094311;-0.0155315;-0.0146507;0.693589
0.09481;-0.0160476;-0.0150523;0.693589
0.095309;-0.0164049;-0.0156856;0.693589
0.095808;-0.0168885;-0.0159796;0.693589
0.096307;-0.0173464;-0.0163687;0.693589
0.096806;-0.0177904;-0.0165343;0.693589
0.097305;-0.0182899;-0.016613;0.693589
0.097804;-0.0187734;-0.0166958;0.693589
0.098303;-0.0192205;-0.0171388;0.693589
0.098802;-0.01971;-0.0167827;0.693589
0.099301;-0.0202538;-0.0176397;0.693589
0.0998;-0.0207106;-0.0180661;0.693589
0.100299;-0.021142;-0.0183683;0.693589
0.100798;-0.0216314;-0.0183062;0.693589
0.101297;-0.0221683;-0.0185711;0.693589
0.101796;-0.0226164;-0.0185918;0.693589
0.102295;-0.0230524;-0.0186539;0.693589
0.102794;-0.0235835;-0.0185794;0.693589
0.103293;-0.0240226;-0.0190265;0.693589
0.103792;-0.024437;-0.0191631;0.693589
0.104291;-0.0249899;-0.0201649;0.693589
0.10479;-0.0254901;-0.020376;0.693589
0.105289;-0.0258899;-0.0206865;0.693589
0.105788;-0.0263999;-0.0206741;0.693589
0.106287;-0.0269449;-0.0207031;0.693589
0.106786;-0.0273287;-0.0210426;0.693589
0.107285;-0.0278497;-0.0213655;0.693589
0.107784;-0.0283679;-0.0215891;0.693589
0.108283;-0.0288671;-0.022177;0.693589
0.108782;-0.0293865;-0.0222763;0.693589
0.109281;-0.0298225;-0.0224584;0.693589
0.10978;-0.0302951;-0.0226323;0.693589
0.110279;-0.0307463;-0.0227234;0.693589
0.110778;-0.0312239;-0.0227896;0.693589
0.111277;-0.0317826;-0.0228104;0.693589
0.111776;-0.0322483;-0.0228393;0.693589
0.112275;-0.0328333;-0.0233981;0.693589
0.112774;-0.0333784;-0.0240687;0.693589
0.113273;-0.0338282;-0.0247228;0.693589
0.113772;-0.034225;-0.0247476;0.693589
0.114271;-0.0347312;-0.024789;0.693589
0.11477;-0.0352167;-0.0248221;0.693589
0.115269;-0.0357032;-0.0249008;0.693589
0.115768;-0.0361494;-0.0253935;0.693589
0.116267;-0.0367071;-0.0254349;0.693589
0.116766;-0.03709;-0.0254556;0.693589
0.117265;-0.0376288;-0.0264286;0.693589
0.117764;-0.0381568;-0.0268384;0.693589
0.118263;-0.0386167;-0.026855;0.693589
0.118762;-0.0391544;-0.0268923;0.693589
0.119261;-0.0396893;-0.0270868;0.693589
0.11976;-0.0400605;-0.0276705;0.693589
0.120259;-0.0405637;-0.0282293;0.693589
0.120758;-0.0410965;-0.0285066;0.693589
0.121257;-0.0416099;-0.0287343;0.693589
0.121756;-0.0420561;-0.028933;0.693589
0.122255;-0.0425828;-0.028962;0.693589
0.122754;-0.0431731;-0.0291069;0.693589
0.123253;-0.0435747;-0.0295251;0.693589
0.123752;-0.0440195;-0.029732;0.693589
0.124251;-0.044598;-0.0306926;0.693589
0.12475;-0.0450898;-0.0299349;0.693589
0.125249;-0.0455428;-0.0306677;0.693589
0.125748;-0.0460338;-0.0306263;0.693589
0.126247;-0.0465511;-0.0309492;0.693589
0.126746;-0.0469619;-0.0309865;0.693589
0.127245;-0.0474786;-0.0309865;0.693589
0.127744;-0.048059;-0.0309865;0.693589
0.128243;-0.0484895;-0.0312266;0.693589
0.128742;-0.0488221;-0.0317398;0.693589
0.129241;-0.0486899;-0.0313508;0.693589
0.12974;-0.048123;-0.0311107;0.693589
0.130239;-0.0474927;-0.0309865;0.693589
0.130738;-0.0470959;-0.0309865;0.693589
0.131237;-0.046634;-0.0309741;0.693589
0.131736;-0.0461702;-0.0309865;0.693589
0.132235;-0.0456888;-0.0309616;0.693589
0.132734;-0.0452812;-0.0307712;0.693589
0.133233;-0.0447943;-0.0303033;0.693589
0.133732;-0.0442162;-0.0293636;0.693589
0.134231;-0.0438303;-0.029434;0.693589
0.13473;-0.0433664;-0.0292062;0.693589
0.135229;-0.0427438;-0.0289578;0.693589
0.135728;-0.0422434;-0.0287923;0.693589
0.136227;-0.0417944;-0.028904;0.693589
0.136726;-0.0412118;-0.0287467;0.693589
0.137225;-0.0407129;-0.027832;0.693589
0.137724;-0.0402381;-0.0271944;0.693589
0.138223;-0.0398135;-0.0269751;0.693589
0.138722;-0.0393638;-0.0270454;0.693589
0.139221;-0.0388574;-0.0269668;0.693589
0.13972;-0.0383955;-0.0266562;0.693589
0.140219;-0.0378323;-0.0265983;0.693589
0.140718;-0.0373455;-0.0261718;0.693589
0.141217;-0.0369519;-0.0254307;0.693589
0.141716;-0.0363812;-0.0248677;0.693589
0.142215;-0.0358741;-0.0250043;0.693589
0.142714;-0.0353924;-0.0250167;0.693589
0.143213;-0.0348783;-0.0249339;0.693589
0.143712;-0.03438;-0.025054;0.693589
0.144211;-0.0339101;-0.0246855;0.693589
0.14471;-0.0333881;-0.0243089;0.693589
0.145209;-0.0329567;-0.0240439;0.693589
0.145708;-0.0324566;-0.0242592;0.693589
0.146207;-0.0320036;-0.0234023;0.693589
0.146706;-0.0314242;-0.0227938;0.693589
0.147205;-0.0309822;-0.0227234;0.693589
0.147704;-0.030531;-0.0226779;0.693589
0.148203;-0.0299736;-0.0223632;0.693589
0.148702;-0.0295641;-0.0223715;0.693589
0.149201;-0.0290843;-0.021204;0.693589
0.1497;-0.0285198;-0.0212536;0.693589
0.150199;-0.0280135;-0.0208024;0.693589
0.150698;-0.0275696;-0.0205747;0.693589
0.151197;-0.0271335;-0.0205085;0.693589
0.151696;-0.0266151;-0.0199289;0.693589
0.152195;-0.0261544;-0.0195771;0.693589
0.152694;-0.0256756;-0.0195233;0.693589
0.153193;-0.0251389;-0.0190555;0.693589
0.153692;-0.0246551;-0.0191714;0.693589
0.154191;-0.0242022;-0.0190058;0.693589
0.15469;-0.0237276;-0.0189644;0.693589
0.155189;-0.0232389;-0.0186249;0.693589
0.155688;-0.0227664;-0.0186705;0.693589
0.156187;-0.0222412;-0.0186084;0.693589
0.156686;-0.021737;-0.0181572;0.693589
0.157185;-0.0212357;-0.0178384;0.693589
0.157684;-0.0207964;-0.0174534;0.693589
0.158183;-0.0203644;-0.0168655;0.693589
0.158682;-0.019856;-0.0165302;0.693589
0.159181;-0.0193587;-0.016526;0.693589
0.15968;-0.01896;-0.0164143;0.693589
0.160179;-0.0184092;-0.0164267;0.693589
0.160678;-0.0180352;-0.0165964;0.693589
0.161177;-0.017523;-0.0164432;0.693589
0.161676;-0.0170365;-0.0164433;0.693589
0.162175;-0.0165777;-0.0163108;0.693589
0.162674;-0.0161483;-0.0159465;0.693589
0.163173;-0.0155995;-0.0156443;0.693589
0.163672;-0.0151131;-0.0151558;0.693589
0.164171;-0.014673;-0.0145638;0.693589
0.16467;-0.0142348;-0.014481;0.693589
0.165169;-0.0137167;-0.0143444;0.693589
0.165668;-0.0133288;-0.0140546;0.693589
0.166167;-0.0128186;-0.0130114;0.693589
0.166666;-0.0122176;-0.0126429;0.693589
0.167165;-0.0117261;-0.0124193;0.693589
0.167664;-0.0113235;-0.0123697;0.693589
0.168163;-0.0108024;-0.0123573;0.693589
0.168662;-0.0101984;-0.0122827;0.693589
0.169161;-0.00971096;-0.012084;0.693589
0.16966;-0.0092056;-0.0113264;0.693589
0.170159;-0.00869934;-0.0105813;0.693589
0.170658;-0.00827204;-0.0103453;0.693589
0.171157;-0.00778845;-0.0101011;0.693589
0.171656;-0.00724174;-0.0101383;0.693589
0.172155;-0.00672559;-0.0100266;0.693589
0.172654;-0.00633478;-0.0101466;0.693589
0.173153;-0.00582556;-0.00968295;0.693589
0.173652;-0.0053015;-0.00977818;0.693589
0.174151;-0.00480415;-0.00899577;0.693589
0.17465;-0.00431758;-0.00844932;0.693589
0.175149;-0.00377481;-0.00848658;0.693589
0.175648;-0.00323994;-0.00850314;0.693589
0.176147;-0.0028274;-0.0083127;0.693589
0.176646;-0.00232805;-0.00825888;0.693589
0.177145;-0.00186915;-0.00822162;0.693589
0.177644;-0.00144776;-0.00796081;0.693589
0.178143;-0.000911873;-0.00777866;0.693589
0.178642;-0.000477648;-0.00752612;0.693589
0.179141;2.07245e-05;-0.00715767;0.693589
0.17964;0.000490477;-0.00687618;0.693589
0.180139;0.000990823;-0.00626763;0.693589
0.180638;0.00150796;-0.00618898;0.693589
0.181137;0.00188;-0.00613516;0.693589
0.181636;0.00251754;-0.00611033;0.693589
0.182135;0.00301492;-0.00612274;0.693589
0.182634;0.00346987;-0.00575847;0.693589
0.183133;0.00404717;-0.00509195;0.693589
0.183632;0.00453865;-0.00506711;0.693589
0.184131;0.00495809;-0.00484771;0.693589
0.18463;0.00542291;-0.00440475;0.693589
0.185129;0.00597457;-0.00445443;0.693589
0.185628;0.00636537;-0.00413151;0.693589
0.186127;0.0068539;-0.00412323;0.693589
0.186626;0.00739768;-0.00401973;0.693589
0.187125;0.00792956;-0.00370512;0.693589
0.187624;0.00837172;-0.00372995;0.693589
0.188123;0.00891447;-0.00348157;0.693589
0.188622;0.00946514;-0.00321249;0.693589
0.189121;0.0099063;-0.00243421;0.693589
0.18962;0.0103701;-0.00230587;0.693589
0.190119;0.0108942;-0.00227275;0.693589
0.190618;0.0113077;-0.00201194;0.693589
0.191117;0.0118248;-0.00189188;0.693589
0.191616;0.012335;-0.00144479;0.693589
0.192115;0.0127475;-0.00161038;0.693589
0.192614;0.0132636;-0.00129161;0.693589
0.193113;0.0137897;-0.000124194;0.693589
0.193612;0.0142456;1.65592e-05;0.693589
0.194111;0.0147194;2.48388e-05;0.693589
0.19461;0.015191;0.000459518;0.693589
0.195109;0.0157634;0.000604411;0.693589
0.195608;0.0162302;0.000869357;0.693589
0.196107;0.0165875;0.00145721;0.693589
0.196606;0.0171293;0.00158968;0.693589
0.197105;0.0176029;0.0020078;0.693589
0.197604;0.0179503;0.0020492;0.693589
0.198103;0.0184843;0.00212785;0.693589
0.198602;0.019035;0.00251286;0.693589
0.199101;0.0193892;0.00233485;0.693589
0.1996;0.0198858;0.00274883;0.693589
0.200099;0.0204481;0.00281093;0.693589
0.200598;0.020989;0.00358506;0.693589
0.201097;0.0214182;0.00390796;0.693589
0.201596;0.0219619;0.00391624;0.693589
0.202095;0.0223637;0.00385829;0.693589
0.202594;0.0227989;0.00405285;0.693589
0.203093;0.0233516;0.00438819;0.693589
0.203592;0.0237601;0.00445028;0.693589
0.204091;0.0241923;0.0049595;0.693589
0.20459;0.0247065;0.00543141;0.693589
0.205089;0.0252829;0.00596543;0.693589
0.205588;0.0257488;0.00612274;0.693589
0.206087;0.0261395;0.00608548;0.693589
0.206586;0.0267662;0.00624693;0.693589
0.207085;0.0272064;0.00633387;0.693589
0.207584;0.0276346;0.00642494;0.693589
0.208083;0.0281201;0.00678923;0.693589
0.208582;0.0287201;0.00650774;0.693589
0.209081;0.0291179;0.00700451;0.693589
0.20958;0.0296331;0.00746817;0.693589
0.210079;0.0301038;0.00790285;0.693589
0.210578;0.0306031;0.00801877;0.693589
0.211077;0.031144;0.00810985;0.693589
0.211576;0.0316641;0.00826302;0.693589
0.212075;0.0322157;0.0083541;0.693589
0.212574;0.0325966;0.00842862;0.693589
0.213073;0.0331206;0.00877223;0.693589
0.213572;0.0336161;0.00946769;0.693589
0.214071;0.0341292;0.010246;0.693589
0.21457;0.0346001;0.0102046;0.693589
0.215069;0.0351141;0.0103205;0.693589
0.215568;0.0355689;0.0103453;0.693589
0.216067;0.0360004;0.0104819;0.693589
0.216566;0.036637;0.0111774;0.693589
0.217065;0.0371443;0.010987;0.693589
0.217564;0.0375301;0.0118812;0.693589
0.218063;0.0379901;0.0121585;0.693589
0.218562;0.0385368;0.0122538;0.693589
0.219061;0.0389669;0.0123573;0.693589
0.21956;0.0394683;0.0124525;0.693589
0.220059;0.0399597;0.012469;0.693589
0.220558;0.040471;0.012676;0.693589
0.221057;0.0409594;0.0133798;0.693589
0.221556;0.041439;0.0138269;0.693589
0.222055;0.0419367;0.0134295;0.693589
0.222554;0.0424407;0.0143609;0.693589
0.223053;0.0429214;0.014274;0.693589
0.223552;0.0434563;0.0147749;0.693589
0.224051;0.0438568;0.0147294;0.693589
0.22455;0.0443592;0.0154041;0.693589
0.225049;0.0447677;0.01605;0.693589
0.225548;0.0452615;0.0156815;0.693589
0.226047;0.0457411;0.0165343;0.693589
0.226546;0.0462035;0.0167248;0.693589
0.227045;0.0467121;0.0167744;0.693589
0.227544;0.0471542;0.0168821;0.693589
0.228043;0.0476198;0.0171015;0.693589
0.228542;0.0481814;0.0178963;0.693589
0.229041;0.0481339;0.0182731;0.693589
0.22954;0.0476102;0.0171677;0.693589
0.230039;0.0471581;0.0168655;0.693589
0.230538;0.046715;0.0166461;0.693589
0.231037;0.0461781;0.0165053;0.693589
0.231536;0.0457756;0.0164184;0.693589
0.232035;0.0453394;0.0157022;0.693589
0.232534;0.0448546;0.0161079;0.693589
0.233033;0.044368;0.0150771;0.693589
0.233532;0.0438816;0.0148412;0.693589
0.234031;0.0434829;0.0149736;0.693589
0.23453;0.0428908;0.0143899;0.693589
0.235029;0.0425218;0.0143568;0.693589
0.235528;0.0419366;0.0142119;0.693589
0.236027;0.0414498;0.014096;0.693589
0.236526;0.0409889;0.0131231;0.693589
0.237025;0.0405048;0.0127091;0.693589
0.237524;0.0399705;0.0124856;0.693589
0.238023;0.0395088;0.0123945;0.693589
0.238522;0.0391516;0.0125601;0.693589
0.239021;0.0386255;0.0124359;0.693589
0.23952;0.0380868;0.0124235;0.693589
0.240019;0.0376585;0.0117694;0.693589
0.240518;0.0371699;0.0116659;0.693589
0.241017;0.0365796;0.0110118;0.693589
0.241516;0.0361237;0.0107676;0.693589
0.242015;0.0356954;0.0107717;0.693589
0.242514;0.0351516;0.0103991;0.693589
0.243013;0.0346416;0.0102253;0.693589
0.243512;0.0340591;0.0102584;0.693589
0.244011;0.0335708;0.00957122;0.693589
0.24451;0.0330415;0.00857765;0.693589
0.245009;0.0326983;0.00979062;0.693589
0.245508;0.0322178;0.00933941;0.693589
0.246007;0.0317113;0.00917379;0.693589
0.246506;0.0312151;0.00846588;0.693589
0.247005;0.0307678;0.0082713;0.693589
0.247504;0.0301897;0.00830028;0.693589
0.248003;0.0296826;0.00805189;0.693589
0.248502;0.0292629;0.00753027;0.693589
0.249001;0.0286729;0.00709145;0.693589
0.2495;0.0281487;0.00669404;0.693589
0.249999;0.0277511;0.00657398;0.693589
0.250498;0.027322;0.00623865;0.693589
0.250997;0.0267108;0.00619726;0.693589
0.251496;0.0262688;0.00617656;0.693589
0.251995;0.0258167;0.00619726;0.693589
0.252494;0.0253096;0.00589921;0.693589
0.252993;0.0247834;0.0052948;0.693589
0.253492;0.0243779;0.00477734;0.693589
0.253991;0.0238776;0.0049719;0.693589
0.25449;0.0233435;0.00455793;0.693589
