t;vds;corrente;vg
0.00998;-0.00183265;-0.0109919;-0.00639468
0.01996;-0.00195225;-0.00862244;-0.00387392
0.02994;-0.00191173;-0.00738835;-0.00364981
0.03992;-0.00189492;-0.0110542;-0.00275337
0.0499;-0.00182869;-0.00832302;-0.0024172
0.05988;-0.00173973;-0.0111837;-0.00276937
0.06986;-0.000904461;-0.00651438;-0.00304151
0.07984;-0.00055355;-0.00166703;-0.00375386
0.08982;-0.000352888;-0.00384794;-0.00325761
0.0998;-0.000433944;-0.0045803;-0.00224912
0.10978;0.000721592;0.000643346;-0.00328963
0.11976;0.00291504;0.0179165;-0.00354576
0.12974;0.00492561;0.0240061;-0.0030335
0.13972;0.0067632;0.0275748;-0.00280139
0.1497;0.00856915;0.0398793;-0.00377787
0.15968;0.0102575;0.0497925;-0.0036338
0.16966;0.0120733;0.0582531;-0.00344971
0.17964;0.0140611;0.0615467;-0.00399398
0.18962;0.0159857;0.0746725;-0.00360979
0.1996;0.0178845;0.0881626;-0.00355376
0.20958;0.0199307;0.0948146;-0.00389793
0.21956;0.0216655;0.100831;-0.00360178
0.22954;0.0234843;0.107912;-0.00368182
0.23952;0.0253703;0.115612;-0.00361779
0.2495;0.02737;0.129179;-0.00334566
0.25948;0.0292392;0.138388;-0.0038419
0.26946;0.0311569;0.150976;-0.00366582
0.27944;0.0328542;0.161986;-0.00326562
0.28942;0.0349488;0.164094;-0.00396196
0.2994;0.0369207;0.173339;-0.0036418
0.30938;0.0386911;0.183528;-0.00376186
0.31936;0.0404357;0.189589;-0.00356176
0.32934;0.0425304;0.196868;-0.00395396
0.33932;0.0444273;0.205171;-0.00260129
0.3493;0.0459328;0.21126;-0.00385791
0.35928;0.0455382;0.211523;-0.00332165
0.36926;0.0433015;0.201606;-0.00392995
0.37924;0.0414707;0.197802;-0.00354576
0.38922;0.0398753;0.191931;-0.00285742
0.3992;0.0375276;0.18303;-0.00308153
0.40918;0.0358226;0.176552;-0.00369783
0.41916;0.0340255;0.165421;-0.00352175
0.42914;0.0318281;0.150531;-0.00371384
0.43912;0.0302494;0.142653;-0.0030255
0.4491;0.0281677;0.132064;-0.00288143
0.45908;0.0264043;0.125242;-0.00327362
0.46906;0.0245904;0.118036;-0.00331364
0.47904;0.0224533;0.110227;-0.00392194
0.48902;0.0208204;0.0978452;-0.0036418
0.499;0.0189679;0.0873938;-0.0032336
0.50898;0.0170078;0.0767645;-0.00340969
0.51896;0.0154816;0.0707559;-0.00370584
0.52894;0.0133079;0.0610733;-0.00359378
0.53892;0.0110146;0.0531468;-0.00392995
0.5489;0.00959024;0.0433388;-0.00252125
0.55888;0.00744624;0.0353597;-0.00375386
0.56886;0.00564028;0.0266806;-0.00370584
0.57884;0.00376315;0.0139108;-0.00344971
0.58882;0.0016735;0.00964613;-0.00356977
0.5988;0.000107745;0.000178032;-0.0030255
0.60878;-0.00192062;-0.0089866;-0.00356176
0.61876;-0.00380961;-0.020231;-0.00348973
0.62874;-0.00555626;-0.0273887;-0.00370584
0.63872;-0.00754904;-0.0359383;-0.0036418
0.6487;-0.00954972;-0.0458879;-0.00292145
0.65868;-0.0114021;-0.0539439;-0.00297748
0.66866;-0.0132417;-0.0673652;-0.00364981
0.67864;-0.0154213;-0.071642;-0.00386592
0.68862;-0.0169989;-0.0800015;-0.0038339
0.6986;-0.0191251;-0.0879603;-0.00399398
0.70858;-0.0207798;-0.0996741;-0.00395396
0.71856;-0.02274;-0.103651;-0.00396997
0.72854;-0.0248029;-0.112092;-0.0036258
0.73852;-0.0264349;-0.120459;-0.00385791
0.7485;-0.028495;-0.129956;-0.0038419
0.75848;-0.0304037;-0.134168;-0.00332165
0.76846;-0.0322333;-0.140755;-0.00269734
0.77844;-0.0343072;-0.15115;-0.00260129
0.78842;-0.0360845;-0.161407;-0.00287343
0.7984;-0.037745;-0.166849;-0.00294546
0.80838;-0.0398713;-0.173513;-0.00395396
0.81836;-0.0417812;-0.18131;-0.00376186
0.82834;-0.043584;-0.192623;-0.00399398
0.83832;-0.0453939;-0.195403;-0.00388993
0.8483;-0.0472829;-0.200364;-0.00384991
0.85828;-0.0467829;-0.20123;-0.0028174
0.86826;-0.0450163;-0.195516;-0.00337767
0.87824;-0.0429763;-0.1913;-0.00371384
0.88822;-0.0411623;-0.181917;-0.00391394
0.8982;-0.0392912;-0.174456;-0.00360178
0.90818;-0.0373893;-0.164361;-0.00357777
0.91816;-0.0354628;-0.156572;-0.0034337
0.92814;-0.0335906;-0.152784;-0.00366582
0.93812;-0.0318152;-0.142301;-0.00392995
0.9481;-0.0298156;-0.132157;-0.00399398
0.95808;-0.0277635;-0.131396;-0.00399398
0.96806;-0.0260208;-0.121718;-0.00394595
0.97804;-0.0242564;-0.10724;-0.00399398
0.98802;-0.0221973;-0.103089;-0.00393795
0.998;-0.0201798;-0.0944666;-0.00388993
1.00798;-0.0184311;-0.0844846;-0.00392194
1.01796;-0.0165254;-0.079787;-0.00380188
1.02794;-0.014584;-0.0704929;-0.00385791
1.03792;-0.0127959;-0.0609681;-0.00399398
1.0479;-0.0107813;-0.0494162;-0.0038259
1.05788;-0.00901593;-0.0399805;-0.00364981
1.06786;-0.00698264;-0.0383013;-0.00347372
1.07784;-0.00497602;-0.0330412;-0.00331364
1.08782;-0.0030465;-0.015327;-0.00326562
1.0978;-0.00125735;-0.00527624;-0.00398597
1.10778;0.000689961;0.00193408;-0.00339368
1.11776;0.00248999;0.0118999;-0.00310554
1.12774;0.00429891;0.0183414;-0.00235317
1.13772;0.00620965;0.029254;-0.00380989
1.1477;0.00810754;0.0358533;-0.00394595
1.15768;0.0100578;0.0487405;-0.00376987
1.16766;0.0119527;0.0584109;-0.00379388
1.17764;0.013724;0.0629831;-0.00367382
1.18762;0.0156812;0.0739604;-0.00385791
1.1976;0.0177798;0.0833638;-0.00399398
1.20758;0.0194602;0.0942764;-0.00393795
1.21756;0.0214678;0.098622;-0.00340169
1.22754;0.0231542;0.114766;-0.00381789
1.23752;0.0250293;0.12012;-0.00375386
1.2475;0.0268857;0.131574;-0.0024252
1.25748;0.0287085;0.139598;-0.00307352
1.26746;0.0307853;0.146351;-0.00360979
1.27744;0.0326021;0.1559;-0.00365781
1.28742;0.0345266;0.167262;-0.0026173
1.2974;0.036384;0.172473;-0.0036338
1.30738;0.0382927;0.182063;-0.00325761
1.31736;0.0403121;0.189447;-0.00360178
1.32734;0.0420173;0.202367;-0.00381789
1.33732;0.0439487;0.205794;-0.0032256
1.3473;0.0458399;0.209965;-0.00312955
1.35728;0.0456785;0.208133;-0.00256928
1.36726;0.0437669;0.208136;-0.00331364
1.37724;0.0417919;0.197584;-0.00236117
1.38722;0.040071;0.188282;-0.00272935
1.3972;0.0383213;0.179963;-0.00324961
1.40718;0.0361982;0.172874;-0.00377787
1.41716;0.0343961;0.170034;-0.00356176
1.42714;0.0324478;0.162536;-0.00348973
1.43712;0.0303009;0.150244;-0.00379388
1.4471;0.0291067;0.135855;-0.00229714
1.45708;0.0264645;0.133953;-0.00305752
1.46706;0.025139;0.113965;-0.000808405
1.47704;0.0229475;0.105314;-0.00310554
1.48702;0.021616;0.100548;-0.00124062
1.497;0.0191547;0.0912782;-0.00204902
1.50698;0.0168219;0.0787107;-0.00384991
1.51696;0.0167923;0.0761657;-0.00169684
1.52694;0.0129817;0.0584514;-0.00228914
1.53692;0.0116077;0.0531832;-0.00280139
1.5469;0.0107003;0.0494526;-0.00207303
1.55688;0.0067721;0.0390903;-0.00279339
1.56686;0.00635594;0.0335996;-0.00236918
1.57684;0.00504324;0.0201703;-0.00194497
1.58682;0.00103296;0.0145177;-0.00391394
1.5968;0.00150447;0.000744498;-0.00244121
1.60678;-0.00178026;-0.00880453;-0.00291345
1.61676;-0.00388968;-0.0152016;-0.00324161
1.62674;-0.00468047;-0.024091;-0.00339368
1.63672;-0.00777936;-0.0368042;-0.00331364
1.6467;-0.00893983;-0.0404134;-0.00272935
1.65668;-0.010811;-0.0516133;-0.00300149
1.66666;-0.0132753;-0.0611704;-0.00350574
1.67664;-0.014588;-0.0690726;-0.00232916
1.68662;-0.0166746;-0.0880575;-0.00300949
1.6966;-0.0186408;-0.0874221;-0.00349773
1.70658;-0.0201284;-0.0971493;-0.00364981
1.71656;-0.0225176;-0.104258;-0.00355376
1.72654;-0.0242316;-0.113828;-0.00306552
1.73652;-0.0259792;-0.122669;-0.00251325
1.7465;-0.0283328;-0.133173;-0.0026173
1.75648;-0.0298402;-0.13645;-0.00208904
1.76646;-0.0318143;-0.139723;-0.00210505
1.77644;-0.0337744;-0.150786;-0.00228113
1.78642;-0.0355971;-0.161095;-0.0034337
1.7964;-0.0377471;-0.164531;-0.00272135
1.80638;-0.0396489;-0.170701;-0.00304951
1.81636;-0.0412413;-0.183855;-0.00297748
1.82634;-0.0433735;-0.193247;-0.00336967
1.83632;-0.0452123;-0.195593;-0.00330564
1.8463;-0.0470625;-0.201274;-0.00264131
1.85628;-0.047124;-0.206372;-0.00340969
1.86626;-0.0454216;-0.194549;-0.00376987
1.87624;-0.0434112;-0.194035;-0.00397797
1.88622;-0.0415013;-0.180056;-0.00378588
1.8962;-0.0393999;-0.181084;-0.00352975
1.90618;-0.037927;-0.166971;-0.00352175
1.91616;-0.0359501;-0.157247;-0.00308953
1.92614;-0.0339869;-0.151866;-0.00378588
1.93612;-0.0319902;-0.148463;-0.00351374
1.9461;-0.0302218;-0.136393;-0.00250524
1.95608;-0.0282567;-0.129062;-0.00292145
1.96606;-0.0262639;-0.12137;-0.0030175
1.97604;-0.0244075;-0.109822;-0.00380188
1.98602;-0.0225087;-0.104101;-0.00364981
1.996;-0.0209587;-0.0946973;-0.00347372
2.00598;-0.0188473;-0.087062;-0.00307352
2.01596;-0.0169336;-0.0764408;-0.00307352
2.02594;-0.0152097;-0.0736327;-0.00380989
2.03592;-0.0130568;-0.0603693;-0.00384991
2.0459;-0.0112351;-0.0518682;-0.00381789
2.05588;-0.00945087;-0.0445082;-0.00337767
2.06586;-0.00749961;-0.0429382;-0.0036338
2.07584;-0.00568476;-0.0292257;-0.00352175
2.08582;-0.00360598;-0.0180217;-0.0026253
2.0958;-0.00155785;-0.0103987;-0.00288943
2.10578;0.000318291;0.00618259;-0.00316157
2.11576;0.00204418;0.00824211;-0.00361779
2.12574;0.00393812;0.0217564;-0.00384991
2.13572;0.00577373;0.0261748;-0.00328963
2.1457;0.00751148;0.035647;-0.00271335
2.15568;0.00959222;0.0502416;-0.0038259
2.16566;0.0113853;0.0550809;-0.00332965
2.17564;0.0134038;0.0592727;-0.00208103
2.18562;0.0153026;0.0720506;-0.00280139
2.1956;0.0172826;0.0816441;-0.00277738
2.20558;0.018875;0.0908413;-0.00396997
2.21556;0.0207946;0.0954822;-0.00389793
2.22554;0.0226757;0.105294;-0.00309754
2.23552;0.0247733;0.116264;-0.00253726
2.2455;0.0263598;0.13064;-0.00369783
2.25548;0.0284435;0.132088;-0.00292145
2.26546;0.0302099;0.143689;-0.0028254
2.27544;0.0322422;0.149855;-0.00236918
2.28542;0.0341441;0.163337;-0.0036258
2.2954;0.0360231;0.17166;-0.00376186
2.30538;0.037845;0.17726;-0.00307352
2.31536;0.0398812;0.189674;-0.00369783
2.32534;0.0416972;0.198681;-0.00338568
2.33532;0.0436009;0.205138;-0.00300949
2.3453;0.0454633;0.209334;-0.00294546
2.35528;0.0460582;0.213421;-0.00288143
2.36526;0.0441771;0.207853;-0.00107254
2.37524;0.0422862;0.198308;-0.00253726
2.38522;0.0402805;0.189512;-0.00330564
2.3952;0.0386161;0.183819;-0.00213706
2.40518;0.0365826;0.1783;-0.00296947
2.41516;0.0346066;0.168249;-0.00327362
2.42514;0.0326524;0.161706;-0.00254526
2.43512;0.0308998;0.149357;-0.00295346
2.4451;0.0290099;0.141334;-0.00238518
2.45508;0.0269153;0.131991;-0.00304951
2.46506;0.0253505;0.11931;-0.00206503
2.47504;0.0235258;0.118813;-0.00108854
2.48502;0.0213462;0.101758;-0.00195297
2.495;0.0195857;0.094592;-0.00273736
2.50498;0.0179903;0.0817616;-0.00224111
2.51496;0.0156961;0.071464;-0.00329763
2.52494;0.0143596;0.0661431;-0.0028174
2.53492;0.0120397;0.0561288;-0.00114457
2.5449;0.00994708;0.04747;-0.00314556
2.55488;0.00858497;0.0368446;-0.00162481
2.56486;0.00633321;0.0266482;-0.00360178
2.57484;0.00438095;0.0219749;-0.00340969
2.58482;0.00282113;0.00995363;-0.00220109
2.5948;0.000669202;0.0019705;-0.00172886
2.60478;-0.00104977;-0.00370632;-0.00148874
2.61476;-0.00296051;-0.0151328;-0.00168084
2.62474;-0.00501062;-0.0172853;-0.00283341
2.63472;-0.00659615;-0.0377551;-0.00227313
2.6447;-0.0086937;-0.0423475;-0.00399398
2.65468;-0.0106914;-0.0518844;-0.0030335
2.66466;-0.012438;-0.0592849;-0.00315356
2.67464;-0.014497;-0.0678871;-0.00371384
2.68462;-0.0160124;-0.0741871;-0.00314556
2.6946;-0.0180645;-0.0859574;-0.00336967
2.70458;-0.0202638;-0.0905782;-0.00373785
2.71456;-0.0219126;-0.102867;-0.00314556
2.72454;-0.0238599;-0.108636;-0.00248924
2.73452;-0.0258912;-0.119343;-0.00259329
2.7445;-0.0280382;-0.127941;-0.00244121
2.75448;-0.0295744;-0.132991;-0.00290544
2.76446;-0.0313911;-0.143357;-0.00359378
2.77444;-0.0331022;-0.1482;-0.00272935
2.78442;-0.0354983;-0.155475;-0.00199299
2.7944;-0.0370048;-0.166517;-0.0030255
2.80438;-0.0389027;-0.175006;-0.0036338
2.81436;-0.0409152;-0.181225;-0.00272935
2.82434;-0.0428052;-0.187566;-0.00316157
2.83432;-0.0448208;-0.190997;-0.00248123
2.8443;-0.0466287;-0.200283;-0.00345771
2.85428;-0.0473404;-0.202982;-0.00314556
2.86426;-0.0458456;-0.197564;-0.00204902
2.87424;-0.0436148;-0.188144;-0.00206503
2.88422;-0.041861;-0.18301;-0.0024092
2.8942;-0.0399732;-0.174501;-0.00227313
2.90418;-0.0381454;-0.171591;-0.00304951
2.91416;-0.0364413;-0.161969;-0.00247323
2.92414;-0.0344208;-0.151478;-0.00233716
2.93412;-0.0323549;-0.144769;-0.00224912
2.9441;-0.0306379;-0.137441;-0.00335366
2.95408;-0.028738;-0.128062;-0.00316957
2.96406;-0.0267304;-0.114479;-0.00208904
2.97404;-0.0247297;-0.111971;-0.00350574
2.98402;-0.0230068;-0.10597;-0.00344971
2.994;-0.0211554;-0.0974608;-0.00130465
3.00398;-0.0189007;-0.0813812;-0.00307352
3.01396;-0.0173527;-0.0773876;-0.00280139
3.02394;-0.0154094;-0.0710472;-0.00152076
3.03392;-0.0134186;-0.068838;-0.00263331
3.0439;-0.0114219;-0.0558861;-0.00206503
3.05388;-0.00973752;-0.0450665;-0.00153677
3.06386;-0.00787821;-0.0385077;-0.00200099
3.07384;-0.0059052;-0.026717;-0.00248123
3.08382;-0.00402213;-0.0179084;-0.0026253
3.0938;-0.00210547;-0.00437799;-0.00212906
3.10378;-0.000137399;-0.00470168;-0.00267333
3.11376;0.00167844;0.0117178;-0.0022171
3.12374;0.00364058;0.00972706;-0.00195297
3.13372;0.00523105;0.0250823;-0.00268133
3.1437;0.00753422;0.0330574;-0.00263331
3.15368;0.00926405;0.0445567;-0.00210505
3.16366;0.0111184;0.0501122;-0.00346572
3.17364;0.0131576;0.0621213;-0.00222511
3.18362;0.0149419;0.0752148;-0.00244121
3.1936;0.0166638;0.0772419;-0.00251325
3.20358;0.0187603;0.0902869;-0.00324961
3.21356;0.0206474;0.0953325;-0.00308153
3.22354;0.0225324;0.109498;-0.00295346
3.23352;0.0244006;0.119836;-0.00127264
3.2435;0.0262164;0.128645;-0.00287343
3.25348;0.0281103;0.135353;-0.00112856
3.26346;0.0297749;0.14167;-0.000536268
3.27344;0.031745;0.151032;-0.00214507
3.28342;0.0338248;0.161257;-0.00252125
3.2934;0.0356969;0.170256;-0.0018169
3.30338;0.0374674;0.182204;-0.0022091
3.31336;0.0396943;0.186748;-0.00189694
3.32334;0.0412316;0.196888;-0.00186493
3.33332;0.0433261;0.203957;-0.00297748
3.3433;0.0448375;0.207841;-0.00237718
3.35328;0.0462668;0.215064;-0.00294546
3.36326;0.044444;0.210888;-0.00208904
3.37324;0.0425284;0.197706;-0.00249724
3.38322;0.0407056;0.191519;-0.00279339
3.3932;0.0389669;0.18324;-0.00192896
3.40318;0.0371471;0.17461;-0.00229714
3.41316;0.0351177;0.167064;-0.00288143
3.42314;0.0331901;0.159671;-0.00283341
3.43312;0.0312438;0.154678;-0.00268933
3.4431;0.0295615;0.136527;-0.00239319
3.45308;0.0274442;0.130158;-0.00329763
3.46306;0.0256777;0.124542;-0.00388993
3.47304;0.0236603;0.117684;-0.00347372
3.48302;0.0218404;0.103328;-0.00304951
3.493;0.0201818;0.0937018;-0.00311354
3.50298;0.0181218;0.0842539;-0.00198499
3.51296;0.0163247;0.0796575;-0.00232916
3.52294;0.0143745;0.0701368;-0.0016168
3.53292;0.0125636;0.0569503;-0.00207303
3.5429;0.010468;0.0502942;-0.00306552
3.55288;0.00885383;0.0401868;-0.00234516
3.56286;0.00678593;0.0345343;-0.00112056
3.57284;0.00478722;0.018394;-0.00244922
3.58282;0.00344783;0.0153432;-0.00145673
3.5928;0.00105076;0.00182484;-0.0026173
3.60278;-0.000645478;-0.00285257;-0.0028174
3.61276;-0.00232491;-0.0148698;-0.00151275
3.62274;-0.00455295;-0.0241882;-0.00353775
3.63272;-0.00612266;-0.0290557;-0.00252125
3.6427;-0.0082647;-0.0385522;-0.00345771
3.65268;-0.0103721;-0.0486555;-0.00338568
3.66266;-0.0120674;-0.0560358;-0.00379388
3.67264;-0.0140423;-0.0636184;-0.00336167
3.68262;-0.0157405;-0.077076;-0.00263331
3.6926;-0.0178628;-0.0884984;-0.00332165
3.70258;-0.0200424;-0.0903476;-0.00318558
3.71256;-0.0213808;-0.0962227;-0.00244922
3.72254;-0.0234566;-0.109478;-0.00236117
3.73252;-0.0251815;-0.11687;-0.00208103
3.7425;-0.0273779;-0.123963;-0.00231315
3.75248;-0.0294181;-0.136102;-0.00225712
3.76246;-0.0311055;-0.136393;-0.00192096
3.77244;-0.0329283;-0.144097;-0.00056028
3.78242;-0.0350239;-0.157632;-0.00216107
3.7924;-0.0368357;-0.16275;-0.00308953
3.80238;-0.038535;-0.170394;-0.00226513
3.81236;-0.0405978;-0.17849;-0.00284941
3.82234;-0.042309;-0.183981;-0.00348173
3.83232;-0.04435;-0.191219;-0.00210505
3.8423;-0.046434;-0.19531;-0.00270534
3.85228;-0.0473701;-0.200817;-0.00248123
3.86226;-0.0459059;-0.196888;-0.00225712
3.87224;-0.0439795;-0.19372;-0.0024252
3.88222;-0.0422654;-0.187557;-0.00232115
3.8922;-0.0403497;-0.177652;-0.0026173
3.90218;-0.0385142;-0.171664;-0.00324161
3.91216;-0.0365836;-0.161504;-0.00271335
3.92214;-0.0348716;-0.154621;-0.00290544
3.93212;-0.0328719;-0.149552;-0.00340969
3.9421;-0.0309285;-0.141427;-0.00336967
3.95208;-0.0291068;-0.128839;-0.00332965
3.96206;-0.0271753;-0.130959;-0.00288143
3.97204;-0.0250846;-0.113747;-0.00340969
3.98202;-0.023338;-0.109053;-0.00328163
3.992;-0.0214796;-0.102231;-0.00316957
4.00198;-0.019644;-0.0869608;-0.00306552
4.01196;-0.0177076;-0.0732322;-0.00347372
4.02194;-0.0155863;-0.069979;-0.00348173
4.03192;-0.0138071;-0.0636508;-0.00391394
4.0419;-0.0119141;-0.0532156;-0.00296947
4.05188;-0.00987195;-0.048433;-0.00349773
4.06186;-0.00828051;-0.0369377;-0.00385791
4.07184;-0.00607719;-0.0345343;-0.00320959
4.08182;-0.00428804;-0.0196564;-0.00233716
4.0918;-0.00229723;-0.00663172;-0.00332165
4.10178;-0.000639548;0.0020231;-0.00368182
4.11176;0.00117333;0.00455198;-0.00344171
4.12174;0.00321455;0.015153;-0.00375386
4.13172;0.00497701;0.0242367;-0.0038419
4.1417;0.00691147;0.0298973;-0.00392995
4.15168;0.00864131;0.0366019;-0.00328963
4.16166;0.0107497;0.0572133;-0.00340169
4.17164;0.0128473;0.0529769;-0.00307352
4.18162;0.014413;0.0752957;-0.00268933
4.1916;0.0165195;0.0697322;-0.00224912
4.20158;0.0189412;0.0820691;-0.00176888
4.21156;0.0193524;0.0965706;-0.00332965
4.22154;0.023169;0.112104;-0.00237718
4.23152;0.0237433;0.111396;-0.00170485
4.2415;0.025226;0.123959;-0.00351374
4.25148;0.0289457;0.132554;-0.00144072
4.26146;0.0287302;0.14449;-0.0024172
4.27144;0.031571;0.147662;-0.0024092
4.28142;0.0339178;0.161536;-0.000472236
4.2914;0.0342953;0.167294;-0.00357777
4.30138;0.0376986;0.177151;-0.00166483
4.31136;0.0390133;0.185704;-0.00232115
4.32134;0.0404119;0.195355;-0.00308153
4.33132;0.0435494;0.204074;-0.00106453
4.3413;0.0442356;0.207671;-0.00283341
4.35128;0.0460701;0.21595;-0.00324161
4.36126;0.0452704;0.20999;-0.00252125
4.37124;0.042563;0.205591;-0.00387392
4.38122;0.0415567;0.191818;-0.0024252
4.3912;0.0394059;0.187206;-0.00166483
4.40118;0.0371381;0.180748;-0.00272935
4.41116;0.0356803;0.168269;-0.00212105
4.42114;0.0336193;0.165478;-0.00268133
4.43112;0.0317747;0.150733;-0.00272935
4.4411;0.0299232;0.142701;-0.00265732
4.45108;0.0277842;0.135799;-0.00219309
4.46106;0.0262046;0.122669;-0.00208103
4.47104;0.0240765;0.114896;-0.00144072
4.48102;0.0222814;0.107532;-0.00145673
4.491;0.0205277;0.0973596;-0.00279339
4.50098;0.0185834;0.0855285;-0.00226513
4.51096;0.0167102;0.0830078;-0.00289744
4.52094;0.0148203;0.0678062;-0.00329763
4.53092;0.0128136;0.0647837;-0.00276937
4.5409;0.0109415;0.0511237;-0.00294546
4.55088;0.00903669;0.0437434;-0.00128064
4.56086;0.00717737;0.0309089;-0.00142471
4.57084;0.00529036;0.0339557;-0.00266532
4.58082;0.00348045;0.0145137;-0.00372985
4.5908;0.00150249;0.012264;-0.00360178
4.60078;-0.000320268;0.0010156;-0.00295346
4.61076;-0.00206296;-0.0112161;-0.00205702
4.62074;-0.00414174;-0.016909;-0.00244121
4.63072;-0.00593683;-0.0299459;-0.00360178
4.6407;-0.00790688;-0.0355661;-0.00361779
4.65068;-0.00988283;-0.0485139;-0.00355376
4.66066;-0.0112776;-0.0554531;-0.00320159
4.67064;-0.0138328;-0.0652854;-0.00325761
4.68062;-0.01562;-0.0773309;-0.00273736
4.6906;-0.017076;-0.0769385;-0.00197698
4.70058;-0.019816;-0.0917152;-0.00220109
4.71056;-0.0208964;-0.0995446;-0.00204101
4.72054;-0.0228932;-0.107236;-0.00116858
4.73052;-0.0253615;-0.11365;-0.00151275
4.7405;-0.0265812;-0.121629;-0.00252926
4.75048;-0.0288082;-0.130332;-0.00390593
4.76046;-0.0307704;-0.135171;-0.00344971
4.77044;-0.0326169;-0.143098;-0.00178489
4.78042;-0.0345811;-0.160654;-0.00263331
4.7904;-0.0361794;-0.162467;-0.00235317
4.80038;-0.0381682;-0.173177;-0.00326562
4.81036;-0.0402389;-0.176273;-0.0032176
4.82034;-0.0418583;-0.191106;-0.00280139
4.83032;-0.0440574;-0.186841;-0.00320159
4.8403;-0.0459793;-0.20055;-0.000792397
4.85028;-0.0473976;-0.202953;-0.00122461
4.86026;-0.0464843;-0.199109;-0.0024092
4.87024;-0.0446437;-0.195529;-0.00318558
4.88022;-0.0426214;-0.191049;-0.0036258
4.8902;-0.0406394;-0.181715;-0.00276137
4.90018;-0.0386892;-0.171668;-0.00283341
4.91016;-0.036899;-0.169516;-0.00225712
4.92014;-0.0350564;-0.165639;-0.0030335
4.93012;-0.0330507;-0.145501;-0.00306552
4.9401;-0.0310541;-0.141783;-0.0028254
4.95008;-0.0293796;-0.133504;-0.00216107
