t;vds;corrente;vg
0.000499;0.0213511;0.00294811;0.586671
0.000998;0.0217251;0.00378791;0.597923
0.001497;0.0222403;0.00400318;0.597923
0.001996;0.0227318;0.00409839;0.597923
0.002495;0.0231857;0.00417705;0.597923
0.002994;0.0235964;0.00408597;0.597923
0.003493;0.0240917;0.00412323;0.597971
0.003992;0.0246147;0.00416463;0.597923
0.004491;0.0251428;0.00452065;0.597923
0.00499;0.0256214;0.0048477;0.597923
0.005489;0.0261168;0.00496778;0.597923
0.005988;0.0265806;0.00471524;0.597923
0.006487;0.0270988;0.00568806;0.597923
0.006986;0.027609;0.00601511;0.597923
0.007485;0.0280164;0.00606064;0.597923
0.007984;0.0284765;0.00619726;0.597923
0.008483;0.029028;0.00632559;0.597939
0.008982;0.0295108;0.00671887;0.597923
0.009481;0.0299311;0.00693415;0.597923
0.00998;0.0305064;0.0075137;0.597923
0.010479;0.0310473;0.00813055;0.597923
0.010978;0.031509;0.00826302;0.597923
0.011477;0.0320707;0.00828372;0.597923
0.011976;0.0325532;0.0083541;0.597923
0.012475;0.0330169;0.00849071;0.597923
0.012974;0.0334948;0.00913238;0.597923
0.013473;0.0339407;0.00861078;0.597923
0.013972;0.0344096;0.009298;0.597923
0.014471;0.0349375;0.0098941;0.597923
0.01497;0.0354752;0.0102211;0.597923
0.015469;0.0359767;0.0102418;0.597923
0.015968;0.0364217;0.0103784;0.597923
0.016467;0.0369529;0.0107262;0.597923
0.016966;0.0374719;0.0106227;0.597939
0.017465;0.0379022;0.0118025;0.597971
0.017964;0.0383887;0.0122041;0.597955
0.018463;0.0390053;0.0123945;0.597923
0.018962;0.0394367;0.0124318;0.597923
0.019461;0.0398669;0.0129492;0.598003
0.01996;0.040331;0.0129203;0.597955
0.020459;0.0408636;0.0129161;0.597923
0.020958;0.0412879;0.0132018;0.597923
0.021457;0.0417787;0.0141415;0.597923
0.021956;0.0423205;0.0143402;0.597923
0.022455;0.0427092;0.01451;0.597923
0.022954;0.0432076;0.0144893;0.597923
0.023453;0.0437622;0.0145969;0.597923
0.023952;0.0441588;0.0145224;0.597923
0.024451;0.0446957;0.0152344;0.597939
0.02495;0.0452585;0.0147335;0.597923
0.025449;0.0456721;0.0157395;0.597923
0.025948;0.0460644;0.0162073;0.597923
0.026447;0.0465116;0.0163232;0.597923
0.026946;0.0470595;0.0163025;0.597923
0.027445;0.0473692;0.016704;0.598051
0.027944;0.0479554;0.0174078;0.597923
0.028443;0.0482267;0.0172754;0.597923
0.028942;0.0478635;0.0170104;0.597923
0.029441;0.0472993;0.0165509;0.597923
0.02994;0.0468956;0.0168117;0.597923
0.030439;0.0463654;0.0165136;0.597923
0.030938;0.0459572;0.0165633;0.597923
0.031437;0.0455446;0.0162776;0.597923
0.031936;0.0450441;0.0151102;0.597923
0.032435;0.0445348;0.0147045;0.597923
0.032934;0.0440149;0.0144023;0.597923
0.033433;0.0436506;0.01451;0.597923
0.033932;0.0431335;0.0143816;0.597923
0.034431;0.0425307;0.0142119;0.597923
0.03493;0.0420846;0.0142657;0.597923
0.035429;0.0416571;0.0136696;0.597923
0.035928;0.0410846;0.0130983;0.597923
0.036427;0.0405847;0.0126388;0.597923
0.036926;0.0401927;0.0127837;0.597923
0.037425;0.0396892;0.01244;0.597955
0.037924;0.0392079;0.0122041;0.597939
0.038423;0.0387942;0.0121089;0.597923
0.038922;0.0382999;0.0120095;0.597923
0.039421;0.0377858;0.0121047;0.597923
0.03992;0.0372844;0.0111194;0.597923
0.040419;0.0367839;0.0106724;0.597923
0.040918;0.0361977;0.0106475;0.597923
0.041417;0.0357478;0.010424;0.597923
0.041916;0.0352503;0.0101094;0.597939
0.042415;0.0347609;0.00964162;0.597923
0.042914;0.0342398;0.00859836;0.597923
0.043413;0.0338174;0.00880119;0.597923
0.043912;0.033394;0.00906202;0.597923
0.044411;0.0329123;0.00896267;0.597923
0.04491;0.0324211;0.00866874;0.597923
0.045409;0.0319591;0.00862734;0.597923
0.045908;0.03144;0.00826716;0.597923
0.046407;0.0308666;0.0082506;0.597923
0.046906;0.0303702;0.00813468;0.597923
0.047405;0.0298257;0.0080022;0.597923
0.047904;0.0293804;0.0076793;0.597923
0.048403;0.0288969;0.00771655;0.597923
0.048902;0.0283796;0.00662365;0.597923
0.049401;0.0279149;0.00663192;0.597923
0.0499;0.0274512;0.0063587;0.597923
0.050399;0.0269547;0.00617656;0.597923
0.050898;0.0264415;0.00619726;0.597923
0.051397;0.0259371;0.00594061;0.597923
0.051896;0.0255148;0.00606892;0.597923
0.052395;0.0250233;0.00575846;0.597923
0.052894;0.024517;0.00577501;0.597923
0.053393;0.024001;0.00498847;0.597923
0.053892;0.0235173;0.00449583;0.597923
0.054391;0.0229647;0.00443786;0.597923
0.05489;0.0225443;0.00413151;0.597923
0.055389;0.0220656;0.00387899;0.597955
0.055888;0.0215811;0.0038914;0.597923
0.056387;0.0211014;0.00380446;0.597923
0.056886;0.0205952;0.00340706;0.597923
0.057385;0.0200929;0.00243834;0.597923
0.057884;0.019707;0.0027364;0.597923
0.058383;0.0192403;0.00261636;0.598067
0.058882;0.0187142;0.00207404;0.597923
0.059381;0.018198;0.00208645;0.597955
0.05988;0.0177193;0.0019871;0.597971
0.060379;0.017304;0.00193328;0.598019
0.060878;0.0167997;0.00102667;0.597923
0.061377;0.0163309;0.000558873;0.597923
0.061876;0.0159617;0.000132474;0.597923
0.062375;0.0154012;0.000115914;0.598163
0.062874;0.0148951;1.24194e-05;0.597987
0.063373;0.0144973;-0.000107635;0.597939
0.063872;0.014064;0;0.597971
0.064371;0.013459;-0.000252528;0.597923
0.06487;0.0129804;-0.00167247;0.597987
0.065369;0.0125471;-0.00176769;0.597923
0.065868;0.0120508;-0.00195812;0.597923
0.066367;0.0115426;-0.00210715;0.597923
0.066866;0.0110787;-0.00187532;0.597923
0.067365;0.0105527;-0.00216925;0.597923
0.067864;0.010006;-0.00206576;0.597939
0.068363;0.00953527;-0.00300549;0.597923
0.068862;0.00913453;-0.00309658;0.597923
0.069361;0.00851877;-0.00307173;0.597923
0.06986;0.00805785;-0.00322076;0.597923
0.070359;0.00762861;-0.00326217;0.597923
0.070858;0.0071164;-0.00359334;0.597923
0.071357;0.00658347;-0.00406113;0.597923
0.071856;0.00620257;-0.00399075;0.597923
0.072355;0.00567456;-0.00445443;0.597923
0.072854;0.00511894;-0.00455376;0.597923
0.073353;0.00462945;-0.0050878;0.597923
0.073852;0.00417745;-0.00518715;0.597923
0.074351;0.00359324;-0.00512921;0.597971
0.07485;0.0031304;-0.00526167;0.597923
0.075349;0.00266753;-0.00579984;0.597939
0.075848;0.0021129;-0.00617242;0.597923
0.076347;0.00171422;-0.00643323;0.597923
0.076846;0.00125333;-0.00678511;0.597923
0.077345;0.000780619;-0.00729843;0.597939
0.077844;0.000308892;-0.00731086;0.597923
0.078343;-0.000172704;-0.00787388;0.597923
0.078842;-0.000655285;-0.00785733;0.597923
0.079341;-0.00124939;-0.00818436;0.597923
0.07984;-0.00171322;-0.00820506;0.597971
0.080339;-0.00209218;-0.00829614;0.597939
0.080838;-0.00266854;-0.00890471;0.597923
0.081337;-0.00313828;-0.00912414;0.597939
0.081836;-0.00356757;-0.00941388;0.598099
0.082335;-0.00405704;-0.00995619;0.598099
0.082834;-0.00456925;-0.0101176;0.598051
0.083333;-0.00501928;-0.0103081;0.597987
0.083832;-0.00554332;-0.0102956;0.598035
0.084331;-0.00605548;-0.0103288;0.597923
0.08483;-0.00655191;-0.0103288;0.597923
0.085329;-0.00703155;-0.0109;0.597923
0.085828;-0.00760191;-0.010929;0.597923
0.086327;-0.00811216;-0.0114134;0.597923
0.086826;-0.00856018;-0.0119805;0.597923
0.087325;-0.00907634;-0.0122993;0.597923
0.087824;-0.00958357;-0.0124235;0.597923
0.088323;-0.0100612;-0.0126512;0.597923
0.088822;-0.0105616;-0.0124193;0.597923
0.089321;-0.0110245;-0.0126636;0.597923
0.08982;-0.0114952;-0.0132929;0.597923
0.090319;-0.0120073;-0.0135371;0.597923
0.090818;-0.0125462;-0.0138476;0.597923
0.091317;-0.0130357;-0.0140173;0.597923
0.091816;-0.0134946;-0.0143775;0.597987
0.092315;-0.0140404;-0.0149571;0.597939
0.092814;-0.0145654;-0.0163315;0.598051
0.093313;-0.0150123;-0.0165219;0.597923
0.093812;-0.0154821;-0.0164681;0.597923
0.094311;-0.0159529;-0.0161783;0.597923
0.09481;-0.0163951;-0.0163439;0.597923
0.095309;-0.0168757;-0.0165426;0.597923
0.095808;-0.0173267;-0.0165178;0.597923
0.096307;-0.017745;-0.0165716;0.597923
0.096806;-0.0182316;-0.0165964;0.597923
0.097305;-0.0187339;-0.0167165;0.598083
0.097804;-0.0192027;-0.0170187;0.597971
0.098303;-0.0196557;-0.0175072;0.597987
0.098802;-0.0201897;-0.0180164;0.597923
0.099301;-0.0207018;-0.0179874;0.597923
0.0998;-0.0211351;-0.0185007;0.597923
0.100299;-0.0216097;-0.0187284;0.597923
0.100798;-0.0221308;-0.0186415;0.597923
0.101297;-0.0226283;-0.0185918;0.597955
0.101796;-0.0231235;-0.0194777;0.597923
0.102295;-0.0235115;-0.0191465;0.597923
0.102794;-0.0240344;-0.0201525;0.597923
0.103293;-0.0244054;-0.0205499;0.598067
0.103792;-0.024904;-0.0207569;0.597923
0.104291;-0.0254644;-0.0207941;0.597923
0.10479;-0.0259146;-0.0208811;0.597923
0.105289;-0.0263832;-0.0212081;0.597923
0.105788;-0.0269519;-0.0218374;0.598003
0.106287;-0.027461;-0.0218043;0.597923
0.106786;-0.0279385;-0.0221852;0.597923
0.107285;-0.0283847;-0.0224336;0.597923
0.107784;-0.0289688;-0.0225537;0.597923
0.108283;-0.0294112;-0.0226406;0.597923
0.108782;-0.0298669;-0.0228849;0.597923
0.109281;-0.030305;-0.0226696;0.597923
0.10978;-0.0307424;-0.0227855;0.597923
0.110279;-0.0311913;-0.0231167;0.597923
0.110778;-0.0318132;-0.0237541;0.597923
0.111277;-0.0323104;-0.0244579;0.597923
0.111776;-0.0327928;-0.0246565;0.597923
0.112275;-0.0333014;-0.0248304;0.597923
0.112774;-0.0337937;-0.0247311;0.597923
0.113273;-0.0343218;-0.024818;0.597923
0.113772;-0.0347579;-0.0256792;0.597923
0.114271;-0.0352206;-0.0257413;0.597923
0.11477;-0.0357062;-0.0266811;0.597923
0.115269;-0.0361997;-0.0265404;0.597923
0.115768;-0.0366479;-0.0267929;0.597923
0.116267;-0.0371571;-0.0267432;0.597923
0.116766;-0.0376969;-0.0269626;0.597923
0.117265;-0.0381549;-0.0269916;0.597923
0.117764;-0.0386808;-0.0277491;0.597923
0.118263;-0.0391988;-0.0287302;0.597923
0.118762;-0.0396154;-0.0289951;0.597923
0.119261;-0.0401721;-0.0289454;0.597923
0.11976;-0.0406731;-0.028933;0.597923
0.120259;-0.0411123;-0.0291607;0.597923
0.120758;-0.0416524;-0.0290117;0.597923
0.121257;-0.0421725;-0.028991;0.597923
0.121756;-0.0426331;-0.0291442;0.597923
0.122255;-0.0432342;-0.0299474;0.597923
0.122754;-0.0436645;-0.0299431;0.597923
0.123253;-0.0440551;-0.0300716;0.597923
0.123752;-0.0445931;-0.030825;0.597923
0.124251;-0.0450898;-0.0309865;0.597923
0.12475;-0.0455773;-0.0309741;0.597923
0.125249;-0.0460377;-0.0310196;0.597923
0.125748;-0.0465946;-0.0313176;0.597923
0.126247;-0.0470546;-0.0310569;0.597923
0.126746;-0.0474559;-0.0310734;0.597923
0.127245;-0.0480077;-0.0315122;0.597923
0.127744;-0.0485083;-0.0322863;0.597923
0.128243;-0.0488369;-0.0322697;0.597923
0.128742;-0.0486514;-0.0329154;0.597923
0.129241;-0.048204;-0.0326216;0.597923
0.12974;-0.0476999;-0.0317937;0.597923
0.130239;-0.0471788;-0.0316529;0.597923
0.130738;-0.0466982;-0.031181;0.597923
0.131237;-0.0462559;-0.03109;0.597923
0.131736;-0.0457677;-0.0310817;0.597923
0.132235;-0.0453058;-0.0309865;0.597923
0.132734;-0.0448545;-0.0308664;0.597923
0.133233;-0.0442764;-0.0308581;0.597923
0.133732;-0.0438273;-0.0297941;0.597923
0.134231;-0.0433733;-0.0291027;0.597923
0.13473;-0.042878;-0.0295581;0.597923
0.135229;-0.0423401;-0.02902;0.597923
0.135728;-0.04175;-0.0287509;0.597923
0.136227;-0.0412612;-0.0287219;0.597923
0.136726;-0.0407661;-0.0284818;0.597923
0.137225;-0.0402994;-0.0287053;0.597923
0.137724;-0.0398748;-0.027567;0.597923
0.138223;-0.0393135;-0.0272276;0.597923
0.138722;-0.0388988;-0.0271034;0.597923
0.139221;-0.0384894;-0.0270785;0.597923
0.13972;-0.037998;-0.0269958;0.597923
0.140219;-0.0374995;-0.026797;0.597923
0.140718;-0.0369874;-0.0267391;0.597923
0.141217;-0.036471;-0.0256708;0.597923
0.141716;-0.0359363;-0.025203;0.597923
0.142215;-0.0354279;-0.0250375;0.597923
0.142714;-0.0349898;-0.0248097;0.597923
0.143213;-0.0344985;-0.024789;0.597923
0.143712;-0.0339841;-0.0243461;0.597923
0.144211;-0.0335649;-0.0246855;0.597923
0.14471;-0.033086;-0.0243834;0.597923
0.145209;-0.0325473;-0.0236921;0.597923
0.145708;-0.0320965;-0.0235638;0.597923
0.146207;-0.0315781;-0.0233402;0.597923
0.146706;-0.0309812;-0.0231664;0.597923
0.147205;-0.0305419;-0.0227234;0.597923
0.147704;-0.0300525;-0.0227317;0.597923
0.148203;-0.0295888;-0.0226737;0.597923
0.148702;-0.0290547;-0.0225495;0.597923
0.149201;-0.0285899;-0.0225164;0.597923
0.1497;-0.0280648;-0.0217298;0.597923
0.150199;-0.0275548;-0.0208604;0.597923
0.150698;-0.0271137;-0.0207279;0.597923
0.151197;-0.0266842;-0.0208231;0.597923
0.151696;-0.0261474;-0.0206161;0.597923
0.152195;-0.0256381;-0.0203512;0.597971
0.152694;-0.0251823;-0.0195977;0.597923
0.153193;-0.0247637;-0.0197965;0.597923
0.153692;-0.0241993;-0.0191631;0.597923
0.154191;-0.0236852;-0.018774;0.597923
0.15469;-0.0232695;-0.0187823;0.597971
0.155189;-0.0227289;-0.0185711;0.597923
0.155688;-0.0222738;-0.0186001;0.597971
0.156187;-0.0218219;-0.0185504;0.597971
0.156686;-0.0213463;-0.0181861;0.597923
0.157185;-0.0208438;-0.0178674;0.598067
0.157684;-0.0204443;-0.0176852;0.597923
0.158183;-0.0199054;-0.0169732;0.597923
0.158682;-0.0194041;-0.0165923;0.597923
0.159181;-0.0189176;-0.016526;0.598035
0.15968;-0.0185543;-0.016526;0.597923
0.160179;-0.0179523;-0.0165012;0.597923
0.160678;-0.0175043;-0.0163232;0.597923
0.161177;-0.0170563;-0.0162197;0.597923
0.161676;-0.0164938;-0.0160003;0.597939
0.162175;-0.0160861;-0.0153172;0.597955
0.162674;-0.0156489;-0.015073;0.597923
0.163173;-0.0151043;-0.0148163;0.597923
0.163672;-0.0146977;-0.014452;0.598035
0.164171;-0.0141785;-0.0144603;0.597923
0.16467;-0.0137107;-0.0139966;0.598147
0.165169;-0.0132784;-0.013711;0.597923
0.165668;-0.0127218;-0.0131231;0.597923
0.166167;-0.0122541;-0.0134212;0.598003
0.166666;-0.0117271;-0.0132101;0.597923
0.167165;-0.0112021;-0.0127464;0.598019
0.167664;-0.010757;-0.0125601;0.597923
0.168163;-0.0101707;-0.0123407;0.597955
0.168662;-0.00965865;-0.012349;0.598035
0.169161;-0.00918981;-0.0124152;0.597923
0.16966;-0.00872105;-0.012055;0.598115
0.170159;-0.00825723;-0.0114051;0.597923
0.170658;-0.00779831;-0.0107179;0.598179
0.171157;-0.00737894;-0.0108876;0.597923
0.171656;-0.00679071;-0.0104323;0.597923
0.172155;-0.00630815;-0.0103743;0.597923
0.172654;-0.00584135;-0.0103288;0.597923
0.173153;-0.00532124;-0.0101839;0.597923
0.173652;-0.00473407;-0.0103163;0.597923
0.174151;-0.00430376;-0.0101922;0.597923
0.17465;-0.0037383;-0.0100555;0.597923
0.175149;-0.00325574;-0.00882192;0.597939
0.175648;-0.00282247;-0.00834582;0.598019
0.176147;-0.00234286;-0.0083955;0.598035
0.176646;-0.00187803;-0.00826302;0.597939
0.177145;-0.00148723;-0.00834168;0.597923
0.177644;-0.00101451;-0.00803532;0.597923
0.178143;-0.000471727;-0.00799392;0.598003
0.178642;7.69767e-05;-0.00786973;0.597939
0.179141;0.000554624;-0.00705005;0.597923
0.17964;0.00106385;-0.00666506;0.597923
0.180139;0.00151091;-0.00657397;0.597923
0.180638;0.00195994;-0.00619726;0.597923
0.181137;0.00242674;-0.00613102;0.597923
0.181636;0.00290736;-0.00618484;0.597923
0.182135;0.00344816;-0.0056715;0.597923
0.182634;0.00392184;-0.00582882;0.597923
0.183133;0.00449127;-0.00557218;0.597923
0.183632;0.0049798;-0.00440888;0.597939
0.184131;0.00541995;-0.00416877;0.597923
0.18463;0.00591536;-0.00413151;0.597923
0.185129;0.00642557;-0.00402802;0.597923
0.185628;0.00684896;-0.00404872;0.597923
0.186127;0.00732269;-0.00396592;0.597923
0.186626;0.00785455;-0.00402802;0.597923
0.187125;0.00832535;-0.00361819;0.597923
0.187624;0.00887696;-0.00263706;0.598003
0.188123;0.00944344;-0.00212785;0.597923
0.188622;0.00992407;-0.00241765;0.597923
0.189121;0.0104056;-0.00214855;0.597939
0.18962;0.0108448;-0.00222721;0.597923
0.190119;0.011361;-0.00211957;0.597955
0.190618;0.0118219;-0.00185462;0.597923
0.191117;0.012257;-0.00115086;0.597923
0.191616;0.0127297;-0.00132473;0.597923
0.192115;0.013315;-0.000285646;0.598035
0.192614;0.0137256;-4.96776e-05;0.597923
0.193113;0.0142753;-4.55378e-05;0.597923
0.193612;0.0148328;0.000178011;0.598147
0.194111;0.0152235;2.0699e-05;0.597923
0.19461;0.0157338;0.000517475;0.597923
0.195109;0.016247;0.000952152;0.597923
0.195608;0.0167326;0.00198296;0.598035
0.196107;0.01715;0.00199538;0.597923
0.196606;0.0175634;0.00188774;0.597923
0.197105;0.0180954;0.00219823;0.597923
0.197604;0.0185228;0.00258737;0.598131
0.198103;0.0188987;0.00249217;0.597923
0.198602;0.0194731;0.00281507;0.597955
0.199101;0.019865;0.00281092;0.597923
0.1996;0.0203623;0.00291442;0.597923
0.200099;0.0209486;0.00338222;0.597923
0.200598;0.0214804;0.0036306;0.597923
0.201097;0.0218988;0.00385829;0.597955
0.201596;0.0223904;0.0040156;0.597987
0.202095;0.0228502;0.00416877;0.597923
0.202594;0.0233279;0.00428055;0.597923
0.203093;0.023772;0.00413151;0.597923
0.203592;0.0242593;0.0043799;0.597923
0.204091;0.0247095;0.00481873;0.598019
0.20459;0.0251645;0.00541898;0.597923
0.205089;0.0256866;0.0058371;0.597923
0.205588;0.0262224;0.00617656;0.598163
0.206087;0.0266794;0.00622209;0.597923
0.206586;0.0272715;0.00635871;0.598019
0.207085;0.0277333;0.00629661;0.597923
0.207584;0.028215;0.00647462;0.597923
0.208083;0.0286984;0.00653672;0.597923
0.208582;0.0292038;0.00716183;0.597923
0.209081;0.0296065;0.00769586;0.597923
0.20958;0.0301353;0.0080436;0.597923
0.210079;0.0306298;0.0081264;0.597939
0.210578;0.0311973;0.00822576;0.597923
0.211077;0.031671;0.0082506;0.597923
0.211576;0.0322354;0.00836651;0.597923
0.212075;0.0327248;0.0087598;0.597923
0.212574;0.0331157;0.00937251;0.597923
0.213073;0.0335668;0.00982373;0.597923
0.213572;0.0341045;0.00959603;0.597923
0.214071;0.0345961;0.0102087;0.597923
0.21457;0.0351368;0.0105813;0.597923
0.215069;0.0356005;0.0104737;0.597923
0.215568;0.0359945;0.0111484;0.597923
0.216067;0.0365383;0.0114341;0.597955
0.216566;0.0370792;0.0118853;0.597923
0.217065;0.0375438;0.0118067;0.597923
0.217564;0.0379822;0.0122124;0.597923
0.218063;0.038521;0.0122993;0.597923
0.218562;0.0389609;0.0120344;0.597923
0.219061;0.0394545;0.0123531;0.597923
0.21956;0.0398738;0.0124276;0.597923
0.220059;0.0404581;0.0133011;0.597923
0.220558;0.0409801;0.0129161;0.597923
0.221057;0.0414005;0.0142285;0.597939
0.221556;0.0419406;0.0138724;0.597923
0.222055;0.0423805;0.0144106;0.597923
0.222554;0.0429076;0.0145845;0.597939
0.223053;0.0433171;0.0144976;0.597923
0.223552;0.0438213;0.0145762;0.597923
0.224051;0.0443128;0.0150813;0.597923
0.22455;0.0448003;0.0148784;0.597923
0.225049;0.0452359;0.0151061;0.597923
0.225548;0.0457549;0.0161121;0.597923
0.226047;0.046165;0.0165302;0.597923
0.226546;0.0467219;0.0166668;0.597923
0.227045;0.0472056;0.0165923;0.597955
0.227544;0.0475823;0.0166792;0.597923
0.228043;0.0480837;0.0168945;0.597923
0.228542;0.0482642;0.0171719;0.597923
0.229041;0.047692;0.0165881;0.597923
0.22954;0.0472272;0.0167082;0.597923
0.230039;0.04679;0.0168241;0.597923
0.230538;0.0462727;0.016555;0.597923
0.231037;0.0457806;0.016555;0.597923
0.231536;0.0453463;0.0165343;0.597923
0.232035;0.0448605;0.015665;0.597923
0.232534;0.0443414;0.0153462;0.597923
0.233033;0.0439784;0.0144686;0.597923
0.233532;0.0435648;0.014452;0.597923
0.234031;0.0430151;0.0142326;0.597923
0.23453;0.0424972;0.0141829;0.597923
0.235029;0.0420185;0.012763;0.597923
0.235528;0.0415613;0.0126512;0.597923
0.236027;0.0410442;0.0128085;0.597939
0.236526;0.0405916;0.012469;0.597923
0.237025;0.040086;0.0122869;0.597923
0.237524;0.0395748;0.0122331;0.597923
0.238023;0.0390607;0.0121171;0.597923
0.238522;0.0386926;0.0119143;0.597923
0.239021;0.0381726;0.0117156;0.597923
0.23952;0.0376743;0.011165;0.597923
0.240019;0.0371926;0.0105896;0.597923
0.240518;0.0367612;0.0103784;0.597923
0.241017;0.0361593;0.0104364;0.597923
0.241516;0.0356322;0.0103288;0.597923
0.242015;0.0352523;0.010246;0.598051
0.242514;0.0346149;0.0102667;0.597923
0.243013;0.0340463;0.00915308;0.597955
0.243512;0.0336606;0.00939733;0.597923
0.244011;0.0331787;0.00883847;0.597939
0.24451;0.0327062;0.0083127;0.598099
0.245009;0.0323431;0.00824232;0.598003
0.245508;0.0318683;0.00822576;0.598451
0.246007;0.0313127;0.00814297;0.597923
0.246506;0.0308567;0.0080643;0.598243
0.247005;0.0303259;0.0080229;0.597955
0.247504;0.0297842;0.00775382;0.597955
0.248003;0.0292698;0.00730671;0.597939
0.248502;0.0288199;0.00690515;0.597971
0.249001;0.028347;0.00670231;0.597923
0.2495;0.0277708;0.00624693;0.598003
0.249999;0.0273506;0.00647875;0.598195
0.250498;0.0268589;0.00619726;0.598099
0.250997;0.0262994;0.0061186;0.597923
0.251496;0.0259095;0.00601512;0.598147
0.251995;0.0253895;0.00544798;0.598131
0.252494;0.0249048;0.00560943;0.597971
0.252993;0.0244105;0.00516649;0.597923
0.253492;0.0240364;0.00476492;0.598019
0.253991;0.0234896;0.00498019;0.597939
0.25449;0.023017;0.0045248;0.598019
