t;vds;corrente;vg
0.000499;-0.00878024;-0.0116055;-0.113042
0.000998;-0.00922339;-0.0119019;-0.112416
0.001497;-0.00975926;-0.0123945;-0.113657
0.001996;-0.0101984;-0.0127919;-0.112257
0.002495;-0.0106623;-0.0131769;-0.111811
0.002994;-0.0113057;-0.0131521;-0.112257
0.003493;-0.0118505;-0.013653;-0.111398
0.003992;-0.0122254;-0.0144189;-0.111175
0.004491;-0.0128383;-0.0144976;-0.111175
0.00499;-0.0133317;-0.014481;-0.111175
0.005489;-0.0137769;-0.0145845;-0.111175
0.005988;-0.0141637;-0.0149115;-0.111175
0.006487;-0.0147204;-0.0150564;-0.111175
0.006986;-0.0151772;-0.0155863;-0.111652
0.007485;-0.0155502;-0.0159672;-0.11127
0.007984;-0.0161148;-0.0155076;-0.111334
0.008483;-0.0166319;-0.0163108;-0.111175
0.008982;-0.0170227;-0.0164101;-0.111429
0.009481;-0.0175052;-0.0164474;-0.111971
0.00998;-0.0180342;-0.0165219;-0.111716
0.010479;-0.0185198;-0.0169939;-0.112321
0.010978;-0.0189284;-0.0173375;-0.112894
0.011477;-0.0194336;-0.0170932;-0.112193
0.011976;-0.019866;-0.0173788;-0.111939
0.012475;-0.0202844;-0.0181613;-0.111971
0.012974;-0.0208104;-0.0182938;-0.11162
0.013473;-0.0213077;-0.0185711;-0.111875
0.013972;-0.0217162;-0.0185049;-0.111175
0.014471;-0.0222177;-0.0185835;-0.112416
0.01497;-0.0227496;-0.018774;-0.112321
0.015469;-0.0232677;-0.0192542;-0.113053
0.015968;-0.0236664;-0.0188691;-0.112448
0.016467;-0.0241814;-0.0198047;-0.113944
0.016966;-0.0247243;-0.0200117;-0.112162
0.017465;-0.02513;-0.0206617;-0.113244
0.017964;-0.0256164;-0.0209639;-0.113626
0.018463;-0.0261198;-0.020997;-0.112289
0.018962;-0.026625;-0.0213116;-0.113817
0.019461;-0.0270249;-0.0217464;-0.111684
0.01996;-0.0275488;-0.0221107;-0.113053
0.020459;-0.0281152;-0.0223922;-0.112575
0.020958;-0.0285061;-0.0227234;-0.113626
0.021457;-0.0289945;-0.0227896;-0.113817
0.021956;-0.0295355;-0.0227234;-0.113021
0.022455;-0.030016;-0.0232781;-0.115313
0.022954;-0.0304442;-0.0236217;-0.115854
0.023453;-0.0309605;-0.0233278;-0.115503
0.023952;-0.0314764;-0.0232947;-0.113912
0.024451;-0.0320214;-0.0238245;-0.114962
0.02495;-0.0325197;-0.0239653;-0.114421
0.025449;-0.0330357;-0.0245365;-0.113084
0.025948;-0.0335165;-0.0248056;-0.111811
0.026447;-0.0339851;-0.0249298;-0.113403
0.026946;-0.0343702;-0.0250085;-0.112002
0.027445;-0.0349325;-0.0250167;-0.115854
0.027944;-0.0353933;-0.0253438;-0.115854
0.028443;-0.0358445;-0.0256585;-0.114039
0.028942;-0.0364276;-0.0258903;-0.112384
0.029441;-0.0368788;-0.0252113;-0.111716
0.02994;-0.0373821;-0.0257579;-0.116013
0.030439;-0.0378835;-0.0266977;-0.116331
0.030938;-0.0384045;-0.026855;-0.117859
0.031437;-0.0388604;-0.0272772;-0.11353
0.031936;-0.0392985;-0.0276291;-0.114962
0.032435;-0.0398018;-0.0282252;-0.113944
0.032934;-0.0403103;-0.028486;-0.11388
0.033433;-0.0406978;-0.0284983;-0.111907
0.033932;-0.0412514;-0.0287881;-0.11318
0.034431;-0.0417887;-0.0288833;-0.112543
0.03493;-0.0423303;-0.0291359;-0.111716
0.035429;-0.0428424;-0.0292311;-0.111971
0.035928;-0.0433211;-0.0290903;-0.111302
0.036427;-0.0437977;-0.0297444;-0.111175
0.036926;-0.0442002;-0.0294256;-0.112893
0.037425;-0.0447362;-0.0294092;-0.111907
0.037924;-0.0452763;-0.0299764;-0.113562
0.038423;-0.0457273;-0.030498;-0.114517
0.038922;-0.046165;-0.0304773;-0.113435
0.039421;-0.0466815;-0.0308126;-0.114199
0.03992;-0.0471878;-0.031032;-0.119482
0.040419;-0.0475497;-0.0311396;-0.114931
0.040918;-0.0481123;-0.0313218;-0.11509
0.041417;-0.0486436;-0.0312473;-0.113148
0.041916;-0.0488981;-0.0315163;-0.11248
0.042415;-0.0484745;-0.0312432;-0.112352
0.042914;-0.0481428;-0.0310776;-0.11423
0.043413;-0.047616;-0.0309865;-0.112798
0.043912;-0.0470969;-0.0310196;-0.111684
0.044411;-0.0466142;-0.0309865;-0.113498
0.04491;-0.0461673;-0.0309865;-0.112384
0.045409;-0.0456295;-0.030883;-0.111716
0.045908;-0.0451695;-0.0307422;-0.111493
0.046407;-0.0446709;-0.0306014;-0.111302
0.046906;-0.0441946;-0.0307381;-0.111175
0.047405;-0.0437237;-0.0302993;-0.111398
0.047904;-0.0432677;-0.0298853;-0.111589
0.048403;-0.0427538;-0.0294753;-0.112543
0.048902;-0.0422059;-0.0295623;-0.115026
0.049401;-0.0416482;-0.0289454;-0.111493
0.0499;-0.0412079;-0.0290199;-0.112162
0.050399;-0.040703;-0.0290199;-0.112066
0.050898;-0.0401808;-0.0289206;-0.113435
0.051397;-0.0398096;-0.0283411;-0.112034
0.051896;-0.0393086;-0.0282418;-0.112512
0.052395;-0.0388347;-0.027389;-0.117254
0.052894;-0.0383531;-0.027596;-0.116331
0.053393;-0.037848;-0.0268591;-0.111175
0.053892;-0.0373288;-0.0267888;-0.113848
0.054391;-0.0367977;-0.0267598;-0.113689
0.05489;-0.0364098;-0.0265942;-0.111907
0.055389;-0.0358544;-0.0253479;-0.11162
0.055888;-0.0352986;-0.0250043;-0.112735
0.056387;-0.0348526;-0.0249091;-0.111302
0.056886;-0.0343967;-0.0247725;-0.111175
0.057385;-0.0338529;-0.0245199;-0.11127
0.057884;-0.0333624;-0.0244413;-0.112321
0.058383;-0.032935;-0.0240729;-0.112321
0.058882;-0.0324674;-0.0238742;-0.111652
0.059381;-0.0318683;-0.0234727;-0.111461
0.05988;-0.0313739;-0.0229552;-0.112098
0.060379;-0.0309387;-0.0230297;-0.11178
0.060878;-0.0304343;-0.0231125;-0.112734
0.061377;-0.0298562;-0.0225992;-0.111875
0.061876;-0.0295187;-0.0225371;-0.112543
0.062375;-0.0290231;-0.022268;-0.111207
0.062874;-0.0284635;-0.0220735;-0.112193
0.063373;-0.0280579;-0.0219698;-0.112034
0.063872;-0.0275715;-0.0218374;-0.111461
0.064371;-0.0270604;-0.0213282;-0.112257
0.06487;-0.0264751;-0.0206865;-0.111175
0.065369;-0.0260862;-0.0205789;-0.112416
0.065868;-0.0256342;-0.0209805;-0.112671
0.066367;-0.0251211;-0.0206161;-0.112321
0.066866;-0.0246176;-0.0204091;-0.111716
0.067365;-0.0242042;-0.0198959;-0.111843
0.067864;-0.0236871;-0.0190306;-0.111525
0.068363;-0.0232113;-0.0190596;-0.111175
0.068862;-0.0227052;-0.0186042;-0.111175
0.069361;-0.0222807;-0.0185918;-0.111493
0.06986;-0.0217232;-0.0185463;-0.111334
0.070359;-0.0212466;-0.0185877;-0.11162
0.070858;-0.0208566;-0.0186001;-0.112639
0.071357;-0.0203447;-0.0184428;-0.111716
0.071856;-0.019785;-0.0176645;-0.111461
0.072355;-0.0194485;-0.0166875;-0.111239
0.072854;-0.0188998;-0.0167123;-0.111175
0.073353;-0.0184151;-0.0165219;-0.111175
0.073852;-0.0179454;-0.0164805;-0.111239
0.074351;-0.0175013;-0.0162901;-0.111175
0.07485;-0.0169734;-0.0164722;-0.111939
0.075349;-0.0164809;-0.0161907;-0.111175
0.075848;-0.0161049;-0.0158968;-0.112098
0.076347;-0.0156222;-0.015193;-0.111748
0.076846;-0.0151289;-0.014866;-0.113785
0.077345;-0.0147036;-0.0150482;-0.111875
0.077844;-0.014292;-0.0146963;-0.112066
0.078343;-0.0138242;-0.0149446;-0.115917
0.078842;-0.0132537;-0.0144769;-0.113785
0.079341;-0.0127603;-0.0143568;-0.113785
0.07984;-0.0122373;-0.0134129;-0.111716
0.080339;-0.0116541;-0.0129078;-0.112066
0.080838;-0.0112445;-0.0138352;-0.113944
0.081337;-0.0107728;-0.0129741;-0.112671
0.081836;-0.0102734;-0.0126139;-0.114549
0.082335;-0.00968233;-0.0126139;-0.112448
0.082834;-0.00928259;-0.01244;-0.111652
0.083333;-0.00877235;-0.0122165;-0.111175
0.083832;-0.0082365;-0.0122993;-0.112162
0.084331;-0.00775294;-0.0117073;-0.111652
0.08483;-0.00732465;-0.0109207;-0.112703
0.085329;-0.0067236;-0.0104116;-0.11127
0.085828;-0.00617593;-0.0102998;-0.111461
0.086327;-0.0057772;-0.010246;-0.111971
0.086826;-0.00528275;-0.0101963;-0.112002
0.087325;-0.00466893;-0.00961674;-0.111843
0.087824;-0.00416758;-0.0096002;-0.111684
0.088323;-0.00369587;-0.00844932;-0.111461
0.088822;-0.00314027;-0.00830856;-0.111207
0.089321;-0.00263102;-0.00840792;-0.113116
0.08982;-0.00220173;-0.00805189;-0.111366
0.090319;-0.0017527;-0.00816366;-0.113498
0.090818;-0.00129182;-0.00773312;-0.113053
0.091317;-0.000915821;-0.00753854;-0.113371
0.091816;-0.000418435;-0.00743505;-0.113817
0.092315;8.09242e-05;-0.00683062;-0.11458
0.092814;0.000655286;-0.00664849;-0.113657
0.093313;0.00107076;-0.00629661;-0.115885
0.093812;0.00150697;-0.00619726;-0.113307
0.094311;0.00199349;-0.00631317;-0.119132
0.09481;0.00251458;-0.00599028;-0.11248
0.095309;0.00305243;-0.00608135;-0.114039
0.095808;0.00357349;-0.00578329;-0.112098
0.096307;0.00401263;-0.00526584;-0.111652
0.096806;0.00451989;-0.00428883;-0.111398
0.097305;0.00502224;-0.00433851;-0.112289
0.097804;0.00559661;-0.00421845;-0.112321
0.098303;0.00591932;-0.00419775;-0.111875
0.098802;0.00638116;-0.00413151;-0.112989
0.099301;0.00696247;-0.0039949;-0.11213
0.0998;0.00743222;-0.00387485;-0.11283
0.100299;0.00784862;-0.00356436;-0.112098
0.100798;0.00835298;-0.00317938;-0.114676
0.101297;0.00893223;-0.00268259;-0.111461
0.101796;0.00936351;-0.00283163;-0.111175
0.102295;0.00988164;-0.00273227;-0.11248
0.102794;0.0104698;-0.00220651;-0.111175
0.103293;0.0110097;-0.00240109;-0.111398
0.103792;0.0113679;-0.00221893;-0.111398
0.104291;0.0118574;-0.00207404;-0.111366
0.10479;0.0123813;-0.00180495;-0.112384
0.105289;0.0127929;-0.000989411;-0.11143
0.105788;0.0133357;-0.000848658;-0.111366
0.106287;0.0138134;-0.000935593;-0.111589
0.106786;0.0142723;-0.000662368;-0.112607
0.107285;0.0147075;-7.86562e-05;-0.114708
0.107784;0.0152147;-6.62368e-05;-0.111652
0.108283;0.0157486;0.000144893;-0.111461
0.108782;0.0162332;7.45164e-05;-0.114548
0.109281;0.0166517;0.000327044;-0.113021
0.10978;0.0171412;0.00139097;-0.112034
0.110279;0.017595;0.00172629;-0.111684
0.110778;0.0179996;0.0019664;-0.117318
0.111277;0.0185169;0.00205334;-0.116204
0.111776;0.019029;0.00222307;-0.114135
0.112275;0.0193902;0.00246732;-0.115567
0.112774;0.0198877;0.00240937;-0.117572
0.113273;0.0204569;0.0025377;-0.119323
0.113772;0.0209821;0.00256254;-0.121615
0.114271;0.021435;0.00302618;-0.116585
0.11477;0.0219906;0.00373824;-0.115981
0.115269;0.0224733;0.00392038;-0.11649
0.115768;0.0229389;0.00418947;-0.114453
0.116267;0.0233555;0.00449995;-0.118018
0.116766;0.0239338;0.0047856;-0.117572
0.117265;0.0243206;0.00500088;-0.11474
0.117764;0.0247312;0.00467383;-0.119259
0.118263;0.025275;0.0048767;-0.116331
0.118762;0.0258445;0.00564253;-0.117127
0.119261;0.0262322;0.00600269;-0.114103
0.11976;0.0267692;0.00616;-0.11493
0.120259;0.027308;0.00619726;-0.111652
0.120758;0.0278349;0.00639182;-0.113339
0.121257;0.0282288;0.00709146;-0.111557
0.121756;0.0287171;0.00722393;-0.11283
0.122255;0.0292818;0.00780349;-0.111493
0.122754;0.0296785;0.00808501;-0.112543
0.123253;0.0302113;0.00808501;-0.111907
0.123752;0.030778;0.00845346;-0.111175
0.124251;0.0311834;0.0082506;-0.111684
0.12475;0.0316581;0.00826302;-0.112066
0.125249;0.0322088;0.00836652;-0.112575
0.125748;0.0326972;0.00832926;-0.112512
0.126247;0.0330732;0.00861906;-0.111525
0.126746;0.0336063;0.00917796;-0.112703
0.127245;0.0341588;0.00941388;-0.112862
0.127744;0.0346464;0.00998931;-0.111971
0.128243;0.0351476;0.0100307;-0.114517
0.128742;0.0356588;0.0104033;-0.113753
0.129241;0.0361987;0.0104364;-0.114421
0.12974;0.0365728;0.0105192;-0.115981
0.130239;0.0371226;0.0105606;-0.115472
0.130738;0.0376475;0.0120178;-0.112416
0.131237;0.0380621;0.0114217;-0.115408
0.131736;0.0385309;0.0123945;-0.113467
0.132235;0.0390004;0.0123862;-0.114453
0.132734;0.0395048;0.0123945;-0.112353
0.133233;0.0399874;0.0125104;-0.111493
0.133732;0.040467;0.0129327;-0.112639
0.134231;0.041063;0.0134502;-0.111748
0.13473;0.0414844;0.014303;-0.112193
0.135229;0.0419515;0.0143568;-0.111907
0.135728;0.0425058;0.0144437;-0.111652
0.136227;0.0429836;0.014423;-0.116013
0.136726;0.0434099;0.0148039;-0.113244
0.137225;0.0438361;0.0148536;-0.116649
0.137724;0.0443651;0.0154166;-0.113148
0.138223;0.0448309;0.015843;-0.112989
0.138722;0.0452566;0.0158719;-0.116649
0.139221;0.0457953;0.0162363;-0.11474
0.13972;0.0462637;0.0164722;-0.115185
0.140219;0.0466568;0.0165881;-0.121137
0.140718;0.047171;0.0167744;-0.115917
0.141217;0.0476869;0.0169856;-0.11544
0.141716;0.0481666;0.0170891;-0.116872
0.142215;0.047975;0.0166544;-0.114135
0.142714;0.0475964;0.0166378;-0.11719
0.143213;0.0471157;0.0165426;-0.118018
0.143712;0.0465648;0.0162155;-0.116172
0.144211;0.0461642;0.0160996;-0.120182
0.14471;0.04567;0.0155904;-0.116745
0.145209;0.0450984;0.0148991;-0.124352
0.145708;0.0446423;0.0146838;-0.123079
0.146207;0.0441639;0.0144355;-0.120755
0.146706;0.0437108;0.0143775;-0.118654
0.147205;0.0431848;0.0139304;-0.120787
0.147704;0.0427449;0.0136696;-0.116331
0.148203;0.0423234;0.0130362;-0.115535
0.148702;0.0417677;0.0124607;-0.115917
0.149201;0.0413027;0.0123986;-0.111589
0.1497;0.0408705;0.0120675;-0.117318
0.150199;0.0403616;0.0118481;-0.11579
0.150698;0.0397908;0.0114051;-0.122506
0.151197;0.0393668;0.0118812;-0.115631
0.151696;0.0389186;0.0115044;-0.118814
0.152195;0.0383877;0.0110077;-0.115663
0.152694;0.0378914;0.010631;-0.114931
0.153193;0.0374748;0.0103329;-0.118241
0.153692;0.0369805;0.0102957;-0.113753
0.154191;0.0364878;0.0102915;-0.112034
0.15469;0.0360211;0.0102501;-0.111684
0.155189;0.0355424;0.00974508;-0.112289
0.155688;0.0350095;0.00948426;-0.114644
0.156187;0.034457;0.0094843;-0.11283
0.156686;0.0340226;0.00897092;-0.111684
0.157185;0.0334899;0.00885087;-0.112034
0.157684;0.0330021;0.0083955;-0.11162
0.158183;0.0325601;0.00835824;-0.111334
0.158682;0.0321478;0.0082713;-0.113021
0.159181;0.0315268;0.00802291;-0.113339
0.15968;0.0310276;0.00780763;-0.113976
0.160179;0.0305537;0.00724462;-0.116618
0.160678;0.0300604;0.00710802;-0.117158
0.161177;0.02949;0.00741851;-0.116204
0.161676;0.0289866;0.00644978;-0.115376
0.162175;0.0286491;0.00688858;-0.113403
0.162674;0.0281013;0.00606064;-0.1191
0.163173;0.0276278;0.00606064;-0.115917
0.163672;0.0271453;0.00611446;-0.118495
0.164171;0.0266684;0.00608548;-0.118368
0.16467;0.0260754;0.00608548;-0.120246
0.165169;0.0256431;0.00609791;-0.117063
0.165668;0.0251556;0.00590334;-0.120055
0.166167;0.0245673;0.00541071;-0.118495
0.166666;0.0241164;0.00474836;-0.121169
0.167165;0.0236753;0.00497605;-0.118782
0.167664;0.0231728;0.00423915;-0.121424
0.168163;0.0227615;0.00413979;-0.120214
0.168662;0.0222925;0.00396592;-0.122028
0.169161;0.0218643;0.00382931;-0.119609
0.16966;0.0213107;0.00376307;-0.12171
0.170159;0.0208319;0.00365544;-0.115058
0.170658;0.0203633;0.00285233;-0.120596
0.171157;0.0198994;0.00223135;-0.1177
0.171656;0.0193093;0.00213199;-0.121423
0.172155;0.0188909;0.00195398;-0.120246
0.172654;0.0184339;0.00191258;-0.117381
0.173153;0.0179108;0.00191672;-0.116108
0.173652;0.017378;0.000894196;-0.118782
0.174151;0.0169941;0.00106393;-0.119419
0.17465;0.0165599;0.000608551;-0.115663
0.175149;0.01602;0.000476078;-0.117286
0.175648;0.0156351;3.31184e-05;-0.119291
0.176147;0.0151043;-8.2796e-05;-0.118973
0.176646;0.0146345;-0.000285646;-0.119705
0.177145;0.0141716;-0.000500916;-0.119132
0.177644;0.0137907;-0.0004264;-0.115854
0.178143;0.0132498;-0.000823819;-0.117636
0.178642;0.0126972;-0.00168075;-0.120182
0.179141;0.0122265;-0.00149446;-0.116554
0.17964;0.0117666;-0.00202022;-0.119577
0.180139;0.0111883;-0.0020492;-0.115121
0.180638;0.0107106;-0.00213199;-0.1177
0.181137;0.0102615;-0.00209887;-0.116076
0.181636;0.00969911;-0.00268259;-0.116745
0.182135;0.00920856;-0.00338636;-0.121901
0.182634;0.00871315;-0.00349398;-0.123365
0.183133;0.00822367;-0.00391624;-0.121232
0.183632;0.00770755;-0.00394108;-0.121678
0.184131;0.00723681;-0.00414393;-0.121933
0.18463;0.00681046;-0.00414393;-0.124956
0.185129;0.00626178;-0.00434265;-0.126039
0.185628;0.00576338;-0.00466554;-0.124543
0.186127;0.00533802;-0.00540243;-0.121901
0.186626;0.00485843;-0.00592404;-0.115122
0.187125;0.00425343;-0.00616828;-0.122315
0.187624;0.00380343;-0.00623451;-0.118145
0.188123;0.00334455;-0.00623037;-0.118591
0.188622;0.0027672;-0.00619726;-0.116808
0.189121;0.00219679;-0.00660295;-0.121424
0.18962;0.00182671;-0.00709973;-0.122092
0.190119;0.00137966;-0.00697967;-0.117954
0.190618;0.000901018;-0.00733983;-0.120246
0.191117;0.000404619;-0.00773311;-0.122028
0.191616;-9.8688e-07;-0.00801877;-0.117445
0.192115;-0.000598047;-0.00834168;-0.12327
0.192614;-0.00103819;-0.00803119;-0.122474
0.193113;-0.00147342;-0.00821334;-0.123588
0.193612;-0.00194316;-0.00824646;-0.123078
0.194111;-0.00260044;-0.00870598;-0.125848
0.19461;-0.00301098;-0.00894197;-0.124352
0.195109;-0.00340671;-0.00942218;-0.120851
0.195608;-0.00399882;-0.00886744;-0.116777
0.196107;-0.00447054;-0.00909511;-0.115663
0.196606;-0.00488704;-0.00975334;-0.119164
0.197105;-0.0053558;-0.00988166;-0.117636
0.197604;-0.00586307;-0.0102915;-0.119195
0.198103;-0.00637031;-0.0102832;-0.119386
0.198602;-0.00687561;-0.0106806;-0.121232
0.199101;-0.00741939;-0.010809;-0.122665
0.1996;-0.00792857;-0.0106765;-0.117381
0.200099;-0.00836383;-0.0109083;-0.113371
0.200598;-0.00885722;-0.0116369;-0.114581
0.201097;-0.00941385;-0.0122703;-0.11719
0.201596;-0.00982636;-0.0123945;-0.120214
0.202095;-0.0102724;-0.0123821;-0.114039
0.202594;-0.0107728;-0.0124442;-0.111971
0.203093;-0.0113521;-0.0130486;-0.113467
0.203592;-0.0118149;-0.0130817;-0.114931
0.204091;-0.0123172;-0.0134129;-0.112193
0.20459;-0.0128946;-0.013947;-0.112798
0.205089;-0.0133564;-0.0142616;-0.111811
0.205588;-0.0138075;-0.0144272;-0.112257
0.206087;-0.0143157;-0.0144106;-0.111684
0.206586;-0.0148181;-0.0146217;-0.112671
0.207085;-0.0152216;-0.0151806;-0.113339
0.207584;-0.0157476;-0.0157146;-0.115885
0.208083;-0.0162964;-0.0162611;-0.119068
0.208582;-0.0167366;-0.0164888;-0.113594
0.209081;-0.0171214;-0.0164805;-0.114358
0.20958;-0.017672;-0.0166833;-0.118081
0.210079;-0.0181161;-0.016762;-0.111748
0.210578;-0.0185583;-0.0172505;-0.114039
0.211077;-0.018952;-0.0176521;-0.113912
0.211576;-0.0194859;-0.0182192;-0.116108
0.212075;-0.0199272;-0.0182358;-0.116013
0.212574;-0.0204668;-0.0185918;-0.118718
0.213073;-0.0209683;-0.0188236;-0.115313
0.213572;-0.0214834;-0.0187201;-0.115567
0.214071;-0.0219254;-0.0189603;-0.115217
0.21457;-0.0224595;-0.0190803;-0.117731
0.215069;-0.0229409;-0.0200241;-0.112416
0.215568;-0.0233545;-0.0198875;-0.111175
0.216067;-0.0237424;-0.0201318;-0.111461
0.216566;-0.0243126;-0.0207072;-0.113753
0.217065;-0.0246877;-0.0211833;-0.112448
0.217564;-0.0251359;-0.0211005;-0.11423
0.218063;-0.0256451;-0.0213779;-0.116967
0.218562;-0.0261977;-0.0218209;-0.116617
0.219061;-0.0266428;-0.0223053;-0.117318
0.21956;-0.0271738;-0.0224998;-0.114485
0.220059;-0.0276977;-0.022682;-0.115917
0.220558;-0.0281488;-0.0227151;-0.114358
0.221057;-0.0285919;-0.0226033;-0.11493
0.221556;-0.029192;-0.0229221;-0.114708
0.222055;-0.0296933;-0.0230049;-0.11458
0.222554;-0.0301107;-0.0232326;-0.11353
0.223053;-0.0306209;-0.0232243;-0.111971
0.223552;-0.0311322;-0.0231332;-0.111811
0.224051;-0.031587;-0.0233402;-0.114231
0.22455;-0.0320323;-0.0239611;-0.111716
0.225049;-0.0325798;-0.0244868;-0.11649
0.225548;-0.0330742;-0.0245034;-0.112543
0.226047;-0.0335471;-0.0249795;-0.121615
0.226546;-0.0339969;-0.0249049;-0.117763
0.227045;-0.0345478;-0.0249795;-0.117954
0.227544;-0.0350579;-0.0257537;-0.119195
0.228043;-0.0354673;-0.0262878;-0.120214
0.228542;-0.0359846;-0.0266604;-0.119068
0.229041;-0.0364622;-0.0265858;-0.119387
0.22954;-0.0369558;-0.0264617;-0.120373
0.230039;-0.0374097;-0.0268509;-0.118368
0.230538;-0.0379842;-0.0269544;-0.124447
0.231037;-0.0383502;-0.0270785;-0.11719
0.231536;-0.0388367;-0.0269958;-0.118368
0.232035;-0.0392867;-0.0274221;-0.119832
0.232534;-0.0398452;-0.0280596;-0.118559
0.233033;-0.0402925;-0.0286639;-0.123079
0.233532;-0.0407797;-0.0288337;-0.116172
0.234031;-0.0413729;-0.0288254;-0.116585
0.23453;-0.0419317;-0.0289661;-0.11805
0.235029;-0.0423903;-0.0291483;-0.120564
0.235528;-0.0429273;-0.0294878;-0.119164
0.236027;-0.0434188;-0.0299762;-0.117954
0.236526;-0.0439121;-0.0301295;-0.115185
0.237025;-0.0443197;-0.0307546;-0.11579
0.237524;-0.0448932;-0.0307215;-0.117158
0.238023;-0.045301;-0.0309865;-0.118559
0.238522;-0.0457687;-0.0309865;-0.115854
0.239021;-0.0462736;-0.0310237;-0.115822
0.23952;-0.0467644;-0.0313673;-0.119864
0.240019;-0.047245;-0.0313549;-0.117031
0.240518;-0.0477136;-0.0323732;-0.117764
0.241017;-0.04829;-0.0328989;-0.117159
0.241516;-0.0487235;-0.0329113;-0.117922
0.242015;-0.0489022;-0.0328865;-0.116013
0.242514;-0.04852;-0.032543;-0.116204
0.243013;-0.0480668;-0.0319386;-0.119132
0.243512;-0.0475431;-0.0315702;-0.121455
0.244011;-0.0469923;-0.0313798;-0.118814
0.24451;-0.046548;-0.0310279;-0.118304
0.245009;-0.0459839;-0.0309865;-0.12031
0.245508;-0.0455486;-0.0309865;-0.120978
0.246007;-0.0451241;-0.0308499;-0.11509
