t;vds;corrente;vg
0.000499;0.0214962;0.00252687;0.765851
0.000998;0.0219639;0.00357678;0.780357
0.001497;0.0224664;0.0039742;0.781981
0.001996;0.0228393;0.00405285;0.780803
0.002495;0.0234039;0.00408597;0.778893
0.002994;0.0239071;0.00416463;0.781472
0.003493;0.0242239;0.00417705;0.778607
0.003992;0.0246818;0.00418947;0.77899
0.004491;0.0252276;0.00460759;0.779308
0.00499;0.0257014;0.00482287;0.779212
0.005489;0.0261523;0.0049388;0.778703
0.005988;0.026786;0.0054935;0.779212
0.006487;0.0273021;0.00559285;0.779148
0.006986;0.0277678;0.00537344;0.77848
0.007485;0.028287;0.00606893;0.778576
0.007984;0.0287842;0.00621795;0.778353
0.008483;0.0292117;0.00649118;0.779117
0.008982;0.0296716;0.00642909;0.778226
0.009481;0.0301955;0.00717839;0.778448
0.00998;0.0307187;0.00700451;0.778576
0.010479;0.0311489;0.00768758;0.778226
0.010978;0.0317569;0.00815124;0.781152
0.011477;0.0322917;0.0082713;0.779498
0.011976;0.0326321;0.00826302;0.779371
0.012475;0.0331938;0.0088923;0.781312
0.012974;0.0337207;0.00865632;0.778226
0.013473;0.0341727;0.00914895;0.778862
0.013972;0.0346011;0.00898336;0.77883
0.014471;0.035192;0.00938495;0.778544
0.01497;0.0356371;0.00951742;0.780452
0.015469;0.0360675;0.00998516;0.782999
0.015968;0.036717;0.0103495;0.785321
0.016467;0.0372025;0.0102087;0.783953
0.016966;0.0376455;0.0104737;0.784271
0.017465;0.0380809;0.0105689;0.781089
0.017964;0.0385673;0.0106599;0.779276
0.018463;0.0389916;0.0117611;0.781026
0.018962;0.0394674;0.011906;0.779689
0.019461;0.0400111;0.0122413;0.77934
0.01996;0.0405341;0.0121958;0.779244
0.020459;0.0409475;0.0124649;0.779244
0.020958;0.0415161;0.0125725;0.779371
0.021457;0.0420019;0.0128747;0.778703
0.021956;0.0424003;0.0139925;0.779085
0.022455;0.0429462;0.0140546;0.77883
0.022954;0.0435096;0.0144023;0.779657
0.023453;0.0439002;0.0147459;0.782647
0.023952;0.0443147;0.0146549;0.784685
0.024451;0.0448922;0.0145969;0.780452
0.02495;0.0453859;0.014924;0.778544
0.025449;0.0458062;0.0152178;0.778226
0.025948;0.0463259;0.0154621;0.778703
0.026447;0.046794;0.0156691;0.778671
0.026946;0.0472342;0.0159382;0.779085
0.027445;0.0476533;0.0164681;0.779371
0.027944;0.0482278;0.0166668;0.779467
0.028443;0.0480924;0.0164929;0.780485
0.028942;0.0475026;0.0162901;0.779594
0.029441;0.0471354;0.0163522;0.779562
0.02994;0.0466735;0.0164018;0.782777
0.030439;0.0461514;0.0155987;0.778925
0.030938;0.0457272;0.015843;0.779626
0.031437;0.0453049;0.0155201;0.78004
0.031936;0.0447558;0.0147045;0.779212
0.032435;0.0442911;0.0148039;0.787261
0.032934;0.0438619;0.0145224;0.780643
0.033433;0.0434454;0.0143651;0.782459
0.033932;0.0428168;0.0135661;0.778512
0.034431;0.0423786;0.0132887;0.782999
0.03493;0.0419198;0.0127298;0.780389
0.035429;0.0413451;0.0123945;0.779753
0.035928;0.0409208;0.0124111;0.784717
0.036427;0.0404485;0.0123531;0.784684
0.036926;0.0398708;0.0121089;0.783221
0.037425;0.039414;0.0113471;0.783794
0.037924;0.0389531;0.0114755;0.787963
0.038423;0.038514;0.0106475;0.784527
0.038922;0.0380601;0.010453;0.787995
0.039421;0.0376427;0.0102294;0.781344
0.03992;0.0371956;0.0104074;0.782584
0.040419;0.0365895;0.0102046;0.785257
0.040918;0.0360369;0.0102377;0.780867
0.041417;0.0356183;0.0101176;0.787359
0.041916;0.0350865;0.00964162;0.780135
0.042415;0.0345152;0.00993136;0.785352
0.042914;0.0341539;0.00924004;0.782427
0.043413;0.0336773;0.00909929;0.786371
0.043912;0.0331008;0.0089337;0.786085
0.044411;0.0326963;0.00826302;0.778989
0.04491;0.0322849;0.00827958;0.781058
0.045409;0.0317241;0.00801048;0.783763
0.045908;0.0311668;0.00824232;0.782872
0.046407;0.0307323;0.00732742;0.785034
0.046906;0.0301542;0.00733155;0.784684
0.047405;0.0296184;0.00665264;0.787198
0.047904;0.0291958;0.00642495;0.786689
0.048403;0.0286926;0.00623451;0.785131
0.048902;0.0281132;0.00619726;0.786243
0.049401;0.027613;0.00619726;0.780898
0.0499;0.0272331;0.00619726;0.78233
0.050399;0.0266793;0.00616828;0.781376
0.050898;0.0261168;0.00587023;0.78214
0.051397;0.0257407;0.00511681;0.782331
0.051896;0.0252425;0.00415221;0.780421
0.052395;0.0247281;0.00435092;0.785035
0.052894;0.024372;0.00449996;0.787357
0.053393;0.0238599;0.00413151;0.785353
0.053892;0.0233021;0.00414393;0.789745
0.054391;0.0227625;0.0039328;0.788089
0.05489;0.0223952;0.00337394;0.786785
0.055389;0.02189;0.00372168;0.786308
0.055888;0.0212693;0.0029227;0.784813
0.056387;0.0209958;0.00308001;0.789966
0.056886;0.0204078;0.0026826;0.788631
0.057385;0.0198087;0.00233071;0.787327
0.057884;0.0194357;0.00229345;0.782968
0.058383;0.0190301;0.00195812;0.782458
0.058882;0.0184595;0.0016021;0.781025
0.059381;0.0180678;0.00147376;0.781694
0.05988;0.0176;0.000968712;0.780803
0.060379;0.017077;0.00105151;0.782552
0.060878;0.0166073;0.000960432;0.78319
0.061377;0.0161769;0.000720325;0.785322
0.061876;0.0157456;0.000144893;0.783698
0.062375;0.0151822;8.2796e-06;0.784844
0.062874;0.0147391;2.0699e-05;0.786276
0.063373;0.0142466;-0.000165592;0.783763
0.063872;0.0137078;-0.000703766;0.781407
0.064371;0.013314;-0.00130403;0.785639
0.06487;0.0128551;-0.00165178;0.782967
0.065369;0.0124336;-0.00148204;0.786818
0.065868;0.011886;-0.00202436;0.783763
0.066367;0.0114192;-0.00206576;0.779499
0.066866;0.0109623;-0.00218995;0.781567
0.067365;0.0103415;-0.00207818;0.780738
0.067864;0.00984414;-0.00274468;0.781917
0.068363;0.00935464;-0.0033284;0.780612
0.068862;0.00877827;-0.00301792;0.782585
0.069361;0.00829474;-0.00315452;0.77953
0.06986;0.00786935;-0.00372581;0.780134
0.070359;0.00742927;-0.00426398;0.781663
0.070858;0.00687856;-0.00424329;0.779881
0.071357;0.00643149;-0.00447927;0.778767
0.071856;0.00605157;-0.00502573;0.78093
0.072355;0.00549198;-0.00529482;0.780293
0.072854;0.00494624;-0.00600269;0.778766
0.073353;0.00452878;-0.0058371;0.779913
0.073852;0.00392086;-0.00619726;0.778735
0.074351;0.0033633;-0.00615172;0.779085
0.07485;0.00295176;-0.00619726;0.779689
0.075349;0.00237641;-0.00619726;0.78093
0.075848;0.00188494;-0.00626349;0.780484
0.076347;0.0014744;-0.00670231;0.779658
0.076846;0.00110037;-0.00663193;0.782361
0.077345;0.000550677;-0.00771242;0.779753
0.077844;8.2898e-05;-0.0081264;0.779085
0.078343;-0.000313827;-0.00795667;0.780706
0.078842;-0.000945427;-0.00826302;0.780676
0.079341;-0.00146256;-0.00826302;0.781885
0.07984;-0.00187309;-0.00831684;0.782678
0.080339;-0.00233496;-0.008292;0.782616
0.080838;-0.00291328;-0.00867286;0.781154
0.081337;-0.0033475;-0.00902478;0.781695
0.081836;-0.00377382;-0.00954636;0.778735
0.082335;-0.00435114;-0.0100059;0.778226
0.082834;-0.00483374;-0.010188;0.783698
0.083333;-0.00523836;-0.0103288;0.781757
0.083832;-0.00576734;-0.0103453;0.782679
0.084331;-0.00634365;-0.0109414;0.784782
0.08483;-0.00671968;-0.0110366;0.78548
0.085329;-0.00727828;-0.0109456;0.789648
0.085828;-0.00786935;-0.0117115;0.79054
0.086327;-0.00832336;-0.0120343;0.789427
0.086826;-0.00875359;-0.0122869;0.791812
0.087325;-0.00933687;-0.0121792;0.789903
0.087824;-0.00983031;-0.0124069;0.790317
0.088323;-0.0102408;-0.0125063;0.782617
0.088822;-0.0107876;-0.0130113;0.788089
0.089321;-0.0112307;-0.01297;0.792036
0.08982;-0.0117311;-0.0135868;0.788696
0.090319;-0.0121534;-0.0138352;0.787963
0.090818;-0.0127396;-0.0142285;0.788216
0.091317;-0.0132301;-0.0145183;0.788026
0.091816;-0.0137009;-0.0147004;0.786243
0.092315;-0.0142437;-0.0148494;0.784303
0.092814;-0.0147332;-0.0146217;0.790634
0.093313;-0.0151031;-0.0149695;0.789584
0.093812;-0.0155966;-0.0157353;0.790508
0.094311;-0.0161996;-0.0164515;0.785068
0.09481;-0.0165648;-0.0163853;0.782489
0.095309;-0.0170316;-0.016406;0.781343
0.095808;-0.0175565;-0.0165385;0.779403
0.096307;-0.0179661;-0.0168076;0.781312
0.096806;-0.0183925;-0.0169359;0.782267
0.097305;-0.018954;-0.0166709;0.785479
0.097804;-0.0193231;-0.0173664;0.785416
0.098303;-0.0198196;-0.0178384;0.78284
0.098802;-0.0203879;-0.0179253;0.786435
0.099301;-0.0209416;-0.0185421;0.784431
0.0998;-0.021283;-0.0185256;0.786658
0.100299;-0.0217774;-0.0186374;0.782839
0.100798;-0.0223183;-0.0185918;0.785608
0.101297;-0.02272;-0.0186705;0.783539
0.101796;-0.0232074;-0.0193246;0.781248
0.102295;-0.0237019;-0.0198213;0.784748
0.102794;-0.0241923;-0.020376;0.785991
0.103293;-0.0245969;-0.0207527;0.786054
0.103792;-0.0251694;-0.0209681;0.78039
0.104291;-0.0256727;-0.0210467;0.783476
0.10479;-0.0260971;-0.020997;0.784017
0.105289;-0.0265569;-0.0216553;0.782235
0.105788;-0.0271778;-0.0217215;0.781217
0.106287;-0.0277175;-0.0219617;0.779849
0.106786;-0.0280461;-0.022148;0.782903
0.107285;-0.0286047;-0.022682;0.78322
0.107784;-0.029104;-0.0227441;0.784526
0.108283;-0.0295493;-0.0227483;0.783571
0.108782;-0.030015;-0.0227358;0.785608
0.109281;-0.0305053;-0.0228932;0.783888
0.10978;-0.0308974;-0.0232657;0.782331
0.110279;-0.03136;-0.0237334;0.783603
0.110778;-0.0320421;-0.024313;0.783413
0.111277;-0.0324555;-0.0247062;0.782617
0.111776;-0.032937;-0.0248097;0.781567
0.112275;-0.0335303;-0.0249629;0.78074
0.112774;-0.0339791;-0.0252858;0.783571
0.113273;-0.0344264;-0.0251865;0.784113
0.113772;-0.0348536;-0.0256294;0.783825
0.114271;-0.0353311;-0.0256916;0.782045
0.11477;-0.0357418;-0.0257579;0.788503
0.115269;-0.0362776;-0.026296;0.783254
0.115768;-0.0368759;-0.0265859;0.785321
0.116267;-0.0373604;-0.0261594;0.782935
0.116766;-0.0377709;-0.0266894;0.780708
0.117265;-0.0383039;-0.0267639;0.782426
0.117764;-0.0388633;-0.0270827;0.783093
0.118263;-0.0392887;-0.0271199;0.784304
0.118762;-0.0397929;-0.0273558;0.783699
0.119261;-0.0403784;-0.0275959;0.784813
0.11976;-0.0408261;-0.028399;0.784303
0.120259;-0.0412287;-0.0289827;0.784591
0.120758;-0.0418637;-0.028991;0.780548
0.121257;-0.0423096;-0.0288958;0.785289
0.121756;-0.0428079;-0.0291193;0.783381
0.122255;-0.0433309;-0.0295955;0.787072
0.122754;-0.0438066;-0.0301915;0.785926
0.123253;-0.0441834;-0.0303448;0.788758
0.123752;-0.0447243;-0.0306967;0.785893
0.124251;-0.0453267;-0.0309865;0.787612
0.12475;-0.0458053;-0.0309865;0.784238
0.125249;-0.0461611;-0.0310113;0.788982
0.125748;-0.0466716;-0.0310569;0.785608
0.126247;-0.0471859;-0.0312763;0.787293
0.126746;-0.0475862;-0.0313963;0.790985
0.127245;-0.0481419;-0.0321041;0.788408
0.127744;-0.0486406;-0.0322283;0.787231
0.128243;-0.0487907;-0.0326754;0.78459
0.128742;-0.0483748;-0.0321;0.782999
0.129241;-0.0479277;-0.0317275;0.781916
0.12974;-0.047472;-0.0311314;0.784431
0.130239;-0.0468798;-0.0309865;0.784877
0.130738;-0.0464097;-0.0310237;0.783255
0.131237;-0.0459938;-0.0310196;0.782393
0.131736;-0.0454736;-0.0309699;0.786245
0.132235;-0.0450471;-0.030738;0.783286
0.132734;-0.0446196;-0.0306097;0.779466
0.133233;-0.0440475;-0.0305063;0.781567
0.133732;-0.0434977;-0.0298355;0.782171
0.134231;-0.0431897;-0.0293305;0.782777
0.13473;-0.0425979;-0.0291235;0.780835
0.135229;-0.0419622;-0.0291069;0.782012
0.135728;-0.0414843;-0.0289371;0.782617
0.136227;-0.0409771;-0.028635;0.784208
0.136726;-0.0404603;-0.0287178;0.780804
0.137225;-0.0399853;-0.0281424;0.78004
0.137724;-0.0396626;-0.0274262;0.779244
0.138223;-0.0390805;-0.0271862;0.780708
0.138722;-0.0386285;-0.0268798;0.781567
0.139221;-0.0381568;-0.0268964;0.782903
0.13972;-0.0376358;-0.0267846;0.782267
0.140219;-0.0370298;-0.0266852;0.784175
0.140718;-0.0366289;-0.0264079;0.783223
0.141217;-0.0361721;-0.0256087;0.783475
0.141716;-0.0355957;-0.025588;0.784144
0.142215;-0.0351181;-0.0249878;0.785322
0.142714;-0.0347727;-0.024847;0.782713
0.143213;-0.0342388;-0.0248594;0.787008
0.143712;-0.0337178;-0.0249712;0.789681
0.144211;-0.0332883;-0.0247559;0.787771
0.14471;-0.0327348;-0.0246897;0.786817
0.145209;-0.0321527;-0.0247021;0.782745
0.145708;-0.0317093;-0.0244951;0.785257
0.146207;-0.0313098;-0.0239653;0.78354
0.146706;-0.0306987;-0.0235307;0.784907
0.147205;-0.0302272;-0.0229718;0.786148
0.147704;-0.0298592;-0.0227358;0.7886
0.148203;-0.0293547;-0.0227483;0.78303
0.148702;-0.0288021;-0.0225827;0.786883
0.149201;-0.0283835;-0.0226654;0.782362
0.1497;-0.0278577;-0.0221272;0.784781
0.150199;-0.0273348;-0.0219658;0.784399
0.150698;-0.0268757;-0.0216429;0.782712
0.151197;-0.026405;-0.0213075;0.781026
0.151696;-0.0258749;-0.0207527;0.784208
0.152195;-0.0254704;-0.0206741;0.781407
0.152694;-0.025047;-0.0207693;0.781503
0.153193;-0.0244499;-0.0205913;0.781249
0.153692;-0.0238954;-0.0204464;0.782202
0.154191;-0.023538;-0.0201856;0.78478
0.15469;-0.0230318;-0.0199165;0.78545
0.155189;-0.0225067;-0.0192045;0.780421
0.155688;-0.0221416;-0.0188029;0.781756
0.156187;-0.021592;-0.0189064;0.782075
0.156686;-0.0211567;-0.019159;0.779531
0.157185;-0.0206524;-0.0187864;0.781058
0.157684;-0.0202025;-0.0186456;0.778321
0.158183;-0.0197899;-0.0183931;0.778957
0.158682;-0.0191771;-0.0184345;0.778385
0.159181;-0.0187261;-0.0181489;0.778289
0.15968;-0.018347;-0.0178301;0.778226
0.160179;-0.0177815;-0.0177763;0.778226
0.160678;-0.0173356;-0.0170063;0.778417
0.161177;-0.0169359;-0.0166254;0.778703
0.161676;-0.0163941;-0.016555;0.778226
0.162175;-0.0159529;-0.016526;0.779053
0.162674;-0.0154841;-0.0159423;0.778576
0.163173;-0.0150056;-0.015963;0.778766
0.163672;-0.014444;-0.0160499;0.779752
0.164171;-0.0140423;-0.0154083;0.783158
0.16467;-0.0136002;-0.0147873;0.780803
0.165169;-0.0130465;-0.0145348;0.781567
0.165668;-0.0126291;-0.0143113;0.78004
0.166167;-0.0121238;-0.0143485;0.779149
0.166666;-0.0115337;-0.0138435;0.77918
0.167165;-0.0109899;-0.0133425;0.779562
0.167664;-0.0105023;-0.0131314;0.778703
0.168163;-0.0100514;-0.0126098;0.778989
0.168662;-0.00956192;-0.0126677;0.778766
0.169161;-0.00910394;-0.0123945;0.783317
0.16966;-0.00861153;-0.0122952;0.779913
0.170159;-0.00808845;-0.0122579;0.779244
0.170658;-0.00765723;-0.0118895;0.778448
0.171157;-0.00730294;-0.0113057;0.780548
0.171656;-0.00665353;-0.010515;0.782965
0.172155;-0.00603282;-0.0103288;0.778671
0.172654;-0.0055887;-0.0103619;0.779721
0.173153;-0.00505875;-0.0102211;0.779817
0.173652;-0.00445574;-0.0102749;0.780135
0.174151;-0.00400869;-0.01001;0.782935
0.17465;-0.00363369;-0.00982373;0.78058
0.175149;-0.00314421;-0.00935179;0.78004
0.175648;-0.00258365;-0.00879706;0.77848
0.176147;-0.00220469;-0.00822162;0.782362
0.176646;-0.00169053;-0.00821748;0.780899
0.177145;-0.001128;-0.00820506;0.778862
0.177644;-0.000727328;-0.00798979;0.782076
0.178143;-0.000236851;-0.00723221;0.781536
0.178642;0.000331591;-0.00760478;0.780898
0.179141;0.000661207;-0.00683478;0.781153
0.17964;0.00112899;-0.00665262;0.781343
0.180139;0.00166585;-0.00620967;0.781471
0.180638;0.00210797;-0.00622209;0.780581
0.181137;0.00248398;-0.00644563;0.778448
0.181636;0.00309881;-0.00619726;0.780198
0.182135;0.00365145;-0.00619312;0.77953
0.182634;0.00404717;-0.00599027;0.782203
0.183133;0.004587;-0.00516233;0.78179
0.183632;0.00515053;-0.00469868;0.781917
0.184131;0.00559464;-0.00437577;0.778321
0.18463;0.00600615;-0.00432195;0.779499
0.185129;0.00654599;-0.00433437;0.778226
0.185628;0.00713025;-0.00413151;0.778417
0.186127;0.00753089;-0.00417291;0.778226
0.186626;0.00807268;-0.00405699;0.779275
0.187125;0.00863616;-0.00378791;0.780549
0.187624;0.00897763;-0.0034733;0.77883
0.188123;0.00953916;-0.00239695;0.780548
0.188622;0.0100918;-0.00224377;0.780453
0.189121;0.0104866;-0.00231829;0.779053
0.18962;0.0110195;-0.00206576;0.780166
0.190119;0.0116284;-0.00198296;0.781217
0.190618;0.0121524;-0.00204092;0.781153
0.191117;0.0124544;-0.00206576;0.779339
0.191616;0.0130337;-0.00185048;0.778767
0.192115;0.0135992;-0.00115086;0.779594
0.192614;0.0139979;-0.000190431;0.78058
0.193113;0.0144203;-0.000140753;0.77848
0.193612;0.0149285;0;0.781503
0.194111;0.015416;-2.48388e-05;0.782139
0.19461;0.0158798;1.24194e-05;0.782998
0.195109;0.0164553;0.000459518;0.783667
0.195608;0.0168658;0.000761723;0.780422
0.196107;0.017303;0.00122538;0.780453
0.196606;0.0178091;0.00167247;0.78233
0.197105;0.0182661;0.00206576;0.782011
0.197604;0.0186836;0.0020492;0.782649
0.198103;0.0191603;0.00213613;0.782743
0.198602;0.0196745;0.00209059;0.781663
0.199101;0.0201295;0.00244248;0.78147
0.1996;0.0206178;0.00299307;0.781694
0.200099;0.0212179;0.0031628;0.780008
0.200598;0.0216817;0.00328286;0.781758
0.201097;0.022111;0.00345259;0.779562
0.201596;0.0225888;0.00401145;0.782267
0.202095;0.0230356;0.00389554;0.779435
0.202594;0.0234829;0.00413151;0.778608
0.203093;0.0239871;0.00413565;0.778607
0.203592;0.024507;0.00422259;0.778512
0.204091;0.024976;0.00461587;0.77988
0.20459;0.0254013;0.00513335;0.779626
0.205089;0.02596;0.00551835;0.781344
0.205588;0.0264868;0.00545212;0.779975
0.206087;0.0269173;0.00605237;0.781216
0.206586;0.027385;0.00614758;0.780325
0.207085;0.0279306;0.00626349;0.780326
0.207584;0.0283344;0.00630488;0.779085
0.208083;0.0287448;0.00662366;0.779117
0.208582;0.0293667;0.00722392;0.780071
0.209081;0.0299015;0.00762133;0.778767
0.20958;0.030307;0.008085;0.77848
0.210079;0.0309122;0.00823404;0.779975
0.210578;0.0314212;0.00828373;0.782268
0.211077;0.0318922;0.00824646;0.778703
0.211576;0.0323687;0.00826302;0.780899
0.212075;0.0328836;0.00848657;0.780707
0.212574;0.0333478;0.008499;0.784145
0.213073;0.0337325;0.00850312;0.780548
0.213572;0.034304;0.00895024;0.78039
0.214071;0.0347756;0.00960431;0.779467
0.21457;0.0352808;0.0101673;0.778226
0.215069;0.0358188;0.0101797;0.778321
0.215568;0.0363595;0.00979888;0.778226
0.216067;0.0367387;0.010159;0.778321
0.216566;0.0371837;0.0104736;0.779562
0.217065;0.0378183;0.0109249;0.781376
0.217564;0.0383325;0.010929;0.780358
0.218063;0.0386463;0.0103784;0.778925
0.218562;0.0392235;0.0113761;0.781724
0.219061;0.0397189;0.0123324;0.780103
0.21956;0.040104;0.012349;0.781885
0.220059;0.040605;0.012378;0.78217
0.220558;0.0411754;0.0126429;0.781566
0.221057;0.041518;0.0124276;0.782551
0.221556;0.0420107;0.0127878;0.781185
0.222055;0.0425976;0.013653;0.781662
0.222554;0.0431562;0.0142947;0.780581
0.223053;0.0435402;0.014125;0.781535
0.223552;0.0441005;0.0142947;0.780517
0.224051;0.044599;0.0144354;0.781885
0.22455;0.0449722;0.014423;0.781186
0.225049;0.0454392;0.0147377;0.781725
0.225548;0.0459854;0.0157229;0.785926
0.226047;0.0463457;0.0159217;0.786435
0.226546;0.0467634;0.0162321;0.782904
0.227045;0.0473751;0.0165799;0.784304
0.227544;0.0478439;0.0165923;0.78427
0.228043;0.0482199;0.0166171;0.780994
0.228542;0.048046;0.016526;0.780484
0.229041;0.0476349;0.0168697;0.781757
0.22954;0.0469923;0.0167413;0.784908
0.230039;0.0465213;0.0164888;0.781471
0.230538;0.0461761;0.0161452;0.783031
0.231037;0.0456798;0.0163025;0.787709
0.231536;0.0452318;0.015164;0.781281
0.232035;0.04482;0.0148867;0.782903
0.232534;0.0443257;0.014808;0.786816
0.233033;0.0437661;0.0144851;0.783985
0.233532;0.043325;0.0143609;0.78548
0.234031;0.0428406;0.0142326;0.787294
0.23453;0.0422424;0.0137814;0.786976
0.235029;0.0418547;0.0140173;0.786722
0.235528;0.0413925;0.0133922;0.782809
0.236027;0.0409199;0.0132515;0.78863
0.236526;0.0403675;0.0127837;0.786022
0.237025;0.0400071;0.012941;0.788249
0.237524;0.0394782;0.01244;0.787898
0.238023;0.0389423;0.0123241;0.784781
0.238522;0.0384736;0.012262;0.781949
0.239021;0.038073;0.0123573;0.79
0.23952;0.0374748;0.0118812;0.784972
0.240019;0.0369489;0.0117694;0.787579
0.240518;0.0365569;0.0111609;0.787517
0.241017;0.0360478;0.0106806;0.790125
0.241516;0.0355384;0.0103619;0.789999
0.242015;0.0350894;0.0104447;0.792576
0.242514;0.0346119;0.00962503;0.78478
0.243013;0.0340137;0.00931458;0.786499
0.243512;0.0335086;0.00883432;0.785766
0.244011;0.0331176;0.00855693;0.785861
0.24451;0.0325739;0.00840792;0.787295
0.245009;0.0320609;0.00833754;0.785098
0.245508;0.0316777;0.00826302;0.787677
0.246007;0.0311135;0.00824232;0.782649
0.246506;0.0304738;0.00822576;0.783411
0.247005;0.0300525;0.00781177;0.783697
0.247504;0.0296441;0.00741849;0.783253
0.248003;0.0290833;0.00782834;0.782776
0.248502;0.0286097;0.00734397;0.786084
0.249001;0.0282098;0.00661536;0.785036
0.2495;0.0277629;0.00652844;0.784239
0.249999;0.0271512;0.00623037;0.781375
0.250498;0.0267079;0.00583709;0.781089
0.250997;0.0262215;0.00597785;0.784365
0.251496;0.0257042;0.00579159;0.783732
0.251995;0.0251576;0.00501744;0.779116
0.252494;0.0246936;0.00534036;0.779148
0.252993;0.0241183;0.00465314;0.778512
0.253492;0.0236901;0.0047525;0.778862
0.253991;0.0232962;0.00414393;0.778703
0.25449;0.0227349;0.00390796;0.778226
0.254989;0.0222649;0.00368028;0.778321
