t;vds;corrente;vg
0.000499;-0.0393054;-0.0277205;0.138952
0.000998;-0.0397012;-0.0287674;0.14294
0.001497;-0.0402116;-0.028904;0.14294
0.001996;-0.0407165;-0.028962;0.14294
0.002495;-0.0411665;-0.0289206;0.14294
0.002994;-0.0416711;-0.0289247;0.143035
0.003493;-0.0422307;-0.0291607;0.14294
0.003992;-0.0427319;-0.0294008;0.14294
0.004491;-0.0431661;-0.0293884;0.14294
0.00499;-0.0437366;-0.0297444;0.14294
0.005489;-0.0441765;-0.0306802;0.14294
0.005988;-0.0447253;-0.0308085;0.14294
0.006487;-0.0451736;-0.0308457;0.14294
0.006986;-0.0456178;-0.0307754;0.14294
0.007485;-0.0460525;-0.0309865;0.14294
0.007984;-0.0465185;-0.0309865;0.14294
0.008483;-0.0469817;-0.0310072;0.14294
0.008982;-0.0475833;-0.0316157;0.14294
0.009481;-0.0480038;-0.0316405;0.14294
0.00998;-0.0485261;-0.0321248;0.142972
0.010479;-0.0490322;-0.032543;0.14294
0.010978;-0.0485239;-0.0321497;0.14294
0.011477;-0.0481427;-0.0321745;0.14294
0.011976;-0.0476458;-0.0318724;0.143004
0.012475;-0.0471127;-0.0312266;0.14294
0.012974;-0.0465668;-0.0309741;0.142972
0.013473;-0.04612;-0.0309865;0.14294
0.013972;-0.0456601;-0.0308995;0.14294
0.014471;-0.0451685;-0.0308043;0.14294
0.01497;-0.0446689;-0.0307132;0.14294
0.015469;-0.0442922;-0.030262;0.14294
0.015968;-0.0437661;-0.0302785;0.14294
0.016467;-0.043324;-0.0299763;0.14294
0.016966;-0.0427785;-0.0293967;0.14294
0.017465;-0.0422256;-0.0292891;0.14364
0.017964;-0.0417184;-0.0289868;0.142972
0.018463;-0.0411714;-0.0288088;0.14294
0.018962;-0.0407365;-0.0287716;0.14294
0.019461;-0.0402875;-0.0284528;0.142972
0.01996;-0.0397524;-0.0278609;0.143195
0.020459;-0.0393332;-0.0276622;0.14294
0.020958;-0.0388712;-0.027894;0.14294
0.021457;-0.0383709;-0.027509;0.14294
0.021956;-0.0379014;-0.0270537;0.14294
0.022455;-0.0373959;-0.0268136;0.14294
0.022954;-0.036859;-0.0263167;0.14294
0.023453;-0.0363783;-0.0260766;0.14294
0.023952;-0.0358761;-0.0256254;0.14294
0.024451;-0.0353983;-0.0255176;0.143131
0.02495;-0.0349631;-0.0254846;0.14294
0.025449;-0.0344737;-0.0249381;0.14294
0.025948;-0.033991;-0.0252817;0.14294
0.026447;-0.0334434;-0.0251782;0.14294
0.026946;-0.0329863;-0.0247932;0.14329
0.027445;-0.0325069;-0.0246069;0.14294
0.027944;-0.031979;-0.0243834;0.14294
0.028443;-0.0315879;-0.0239239;0.14294
0.028942;-0.0310553;-0.0244661;0.14294
0.029441;-0.0305823;-0.0236796;0.14294
0.02994;-0.0300358;-0.0232285;0.14294
0.030439;-0.0296411;-0.0228683;0.14294
0.030938;-0.0290408;-0.0225951;0.143035
0.031437;-0.0284843;-0.022239;0.14294
0.031936;-0.0280333;-0.0216966;0.14294
0.032435;-0.0276169;-0.0210674;0.14294
0.032934;-0.0270949;-0.020968;0.14294
0.033433;-0.0265835;-0.0204381;0.14294
0.033932;-0.0260803;-0.0200656;0.14294
0.034431;-0.025645;-0.0194156;0.14294
0.03493;-0.0251931;-0.0195274;0.14294
0.035429;-0.0246748;-0.0195523;0.14294
0.035928;-0.0241844;-0.0191134;0.14294
0.036427;-0.0237197;-0.0189271;0.14294
0.036926;-0.0232123;-0.0187698;0.14294
0.037425;-0.0227555;-0.0185173;0.14294
0.037924;-0.0222886;-0.0185918;0.14294
0.038423;-0.0217883;-0.0185421;0.14294
0.038922;-0.0212949;-0.0183724;0.14294
0.039421;-0.0208823;-0.0181944;0.14294
0.03992;-0.0203664;-0.0176273;0.14294
0.040419;-0.0198205;-0.0171595;0.14294
0.040918;-0.0193666;-0.016762;0.14294
0.041417;-0.0189432;-0.0165881;0.143099
0.041916;-0.0184832;-0.0166461;0.14294
0.042415;-0.0180105;-0.0165095;0.14294
0.042914;-0.0174787;-0.0163605;0.14294
0.043413;-0.017006;-0.016526;0.14294
0.043912;-0.0165559;-0.0160417;0.143768
0.044411;-0.0160535;-0.0155863;0.143768
0.04491;-0.0155739;-0.0153669;0.144341
0.045409;-0.0151536;-0.015193;0.143927
0.045908;-0.0146424;-0.0150233;0.143354
0.046407;-0.0141913;-0.0145514;0.14294
0.046906;-0.0137709;-0.014423;0.14294
0.047405;-0.0132261;-0.0141871;0.143004
0.047904;-0.0127919;-0.0140049;0.14294
0.048403;-0.0122353;-0.0141415;0.143831
0.048902;-0.0117617;-0.0139056;0.143067
0.049401;-0.0111626;-0.0128375;0.144404
0.0499;-0.010601;-0.0128375;0.143704
0.050399;-0.0101056;-0.0123738;0.143354
0.050898;-0.00967247;-0.0123945;0.14294
0.051397;-0.00923028;-0.0122952;0.14294
0.051896;-0.00877728;-0.012262;0.14294
0.052395;-0.00830461;-0.0123697;0.14294
0.052894;-0.00781509;-0.0110863;0.14294
0.053393;-0.00734341;-0.0108586;0.14294
0.053892;-0.00684994;-0.0106682;0.143226
0.054391;-0.00632;-0.0104405;0.14294
0.05489;-0.00578707;-0.0103909;0.14294
0.055389;-0.00523933;-0.0102708;0.142972
0.055888;-0.00479724;-0.0101797;0.14294
0.056387;-0.00424061;-0.00998932;0.14294
0.056886;-0.00375113;-0.00955465;0.14294
0.057385;-0.0032656;-0.00918207;0.14294
0.057884;-0.00277016;-0.00934351;0.143131
0.058383;-0.00231325;-0.00837066;0.14294
0.058882;-0.0018277;-0.00844932;0.14294
0.059381;-0.00141617;-0.00844104;0.14294
0.05988;-0.000904965;-0.0082299;0.14294
0.060379;-0.000406593;-0.00813882;0.14294
0.060878;8.58586e-05;-0.00707903;0.14329
0.061377;0.000604955;-0.00652015;0.143386
0.061876;0.00103819;-0.00656155;0.14294
0.062375;0.00146552;-0.00635871;0.14294
0.062874;0.00196882;-0.00652016;0.14294
0.063373;0.0024899;-0.00623451;0.14294
0.063872;0.00299716;-0.00624279;0.14294
0.064371;0.00349454;-0.00622624;0.14294
0.06487;0.00403928;-0.00611033;0.14294
0.065369;0.00448633;-0.00578742;0.14294
0.065868;0.00490677;-0.00510439;0.14294
0.066367;0.0054091;-0.00465313;0.14294
0.066866;0.00592918;-0.00427227;0.143513
0.067365;0.00639498;-0.00420189;0.14294
0.067864;0.00687462;-0.00413565;0.14294
0.068363;0.00733947;-0.00362646;0.14294
0.068862;0.00783481;-0.00373409;0.14294
0.069361;0.0083589;-0.00321663;0.14294
0.06986;0.00889966;-0.0028813;0.14294
0.070359;0.00939805;-0.00272399;0.143386
0.070858;0.00988459;-0.00261222;0.14294
0.071357;0.0103435;-0.00213199;0.143099
0.071856;0.0108241;-0.00206576;0.142972
0.072355;0.011359;-0.00210301;0.143004
0.072854;0.0117853;-0.00207818;0.143131
0.073353;0.0123182;-0.0020492;0.14294
0.073852;0.0128087;-0.001925;0.143067
0.074351;0.013311;-0.00172629;0.14294
0.07485;0.0138006;-0.00134543;0.143258
0.075349;0.0142812;-0.00150688;0.14294
0.075848;0.0147243;-0.000542314;0.14294
0.076347;0.0152255;-0.00042226;0.14294
0.076846;0.0157466;-0.000509196;0.14294
0.077345;0.0162588;3.31184e-05;0.14294
0.077844;0.0166675;3.31184e-05;0.14294
0.078343;0.0171175;0.000173872;0.14294
0.078842;0.0175289;0.00042226;0.14294
0.079341;0.0179898;0.00102253;0.14294
0.07984;0.0184695;0.00159382;0.14294
0.080339;0.0189757;0.00183393;0.14294
0.080838;0.0194366;0.00201194;0.14294
0.081337;0.0198709;0.00209059;0.14294
0.081836;0.0204037;0.0023721;0.14294
0.082335;0.0209999;0.00344844;0.14294
0.082834;0.0215258;0.0039328;0.14294
0.083333;0.0219017;0.00392452;0.143354
0.083832;0.0224052;0.00424329;0.14294
0.084331;0.0228906;0.00413151;0.143004
0.08483;0.023393;0.00439233;0.143513
0.085329;0.0238163;0.00476905;0.142972
0.085828;0.0242495;0.00500916;0.143163
0.086327;0.0247855;0.00512506;0.143545
0.086826;0.025351;0.00594059;0.14294
0.087325;0.0257408;0.00606893;0.142972
0.087824;0.0261445;0.00615172;0.14294
0.088323;0.0267198;0.00644149;0.143577
0.088822;0.027233;0.0063173;0.143195
0.089321;0.0276908;0.00648291;0.142972
0.08982;0.0282485;0.00668574;0.14294
0.090319;0.0286925;0.00736881;0.14294
0.090818;0.029187;0.00709559;0.14294
0.091317;0.0295976;0.00712457;0.143099
0.091816;0.0300909;0.00757995;0.14294
0.092315;0.030611;0.00784903;0.14294
0.092814;0.0311095;0.00801877;0.14294
0.093313;0.0316374;0.00825474;0.14294
0.093812;0.0321368;0.00821334;0.14294
0.094311;0.0326192;0.00844518;0.14294
0.09481;0.0331038;0.00842034;0.14294
0.095309;0.0335422;0.00843276;0.14294
0.095808;0.0340532;0.00856109;0.14294
0.096307;0.0346296;0.00883847;0.14294
0.096806;0.0351101;0.00935178;0.14294
0.097305;0.0355325;0.0103329;0.14294
0.097804;0.036034;0.010424;0.14294
0.098303;0.0365846;0.0107717;0.14294
0.098802;0.037023;0.0104323;0.14294
0.099301;0.037611;0.0112395;0.143131
0.0998;0.0380473;0.0112188;0.14294
0.100299;0.0386344;0.0116038;0.14294
0.100798;0.0390705;0.0123117;0.14294
0.101297;0.0395216;0.0122124;0.143163
0.101796;0.0400299;0.0123821;0.14294
0.102295;0.0404808;0.0124235;0.143736
0.102794;0.0409455;0.0124566;0.14294
0.103293;0.0414726;0.0133922;0.14294
0.103792;0.0418685;0.0134916;0.14294
0.104291;0.0423618;0.0140256;0.14294
0.10479;0.0428582;0.0143775;0.14294
0.105289;0.0434326;0.0145224;0.14294
0.105788;0.0438667;0.0144396;0.14294
0.106287;0.0443276;0.0143154;0.14294
0.106786;0.0447648;0.0144851;0.14294
0.107285;0.0452763;0.015044;0.14294
0.107784;0.0457519;0.0154869;0.14294
0.108283;0.0462183;0.0158057;0.14294
0.108782;0.0466637;0.0161866;0.14294
0.109281;0.047172;0.016435;0.14294
0.10978;0.0476651;0.0167123;0.143004
0.110279;0.0481143;0.0166916;0.14294
0.110778;0.0480115;0.0164722;0.14294
0.111277;0.0475352;0.0164515;0.142972
0.111776;0.0470525;0.0162611;0.14294
0.112275;0.0465984;0.0164184;0.14294
0.112774;0.0461416;0.0160706;0.14294
0.113273;0.0458191;0.0155656;0.14294
0.113772;0.0453364;0.0153462;0.143226
0.114271;0.0447963;0.015044;0.143417
0.11477;0.0443651;0.0148494;0.143449
0.115269;0.0438865;0.0144727;0.14294
0.115768;0.0434029;0.0144644;0.14294
0.116267;0.0428988;0.0144603;0.14294
0.116766;0.0424172;0.0143071;0.143004
0.117265;0.0419287;0.014067;0.14294
0.117764;0.0413471;0.0129575;0.14294
0.118263;0.0408893;0.0125642;0.14294
0.118762;0.0404801;0.0125311;0.14294
0.119261;0.0399557;0.0123945;0.142972
0.11976;0.0395245;0.0125477;0.143608
0.120259;0.0390598;0.0122579;0.142972
0.120758;0.0384815;0.012084;0.14294
0.121257;0.0380187;0.0119681;0.14294
0.121756;0.0375913;0.0119101;0.14294
0.122255;0.037088;0.0114134;0.14294
0.122754;0.0366319;0.0110035;0.143163
0.123253;0.036032;0.0104405;0.143163
0.123752;0.0355898;0.0102501;0.14294
0.124251;0.0349997;0.00993137;0.14294
0.12475;0.0345201;0.00933527;0.14294
0.125249;0.0340936;0.0086232;0.14294
0.125748;0.0335402;0.00873084;0.14294
0.126247;0.0330623;0.0084783;0.14294
0.126746;0.0326125;0.00834168;0.14294
0.127245;0.0321961;0.00850314;0.14294
0.127744;0.0316491;0.00826302;0.14294
0.128243;0.0311421;0.00820506;0.14294
0.128742;0.0306287;0.00824646;0.14294
0.129241;0.0301048;0.00795254;0.14294
0.12974;0.0295957;0.00780349;0.14294
0.130239;0.0291415;0.00755097;0.14294
0.130738;0.0285919;0.00660296;0.14294
0.131237;0.0281427;0.00628005;0.14294
0.131736;0.0277185;0.0063794;0.14294
0.132235;0.0271493;0.00619726;0.14294
0.132734;0.0267365;0.00611861;0.14294
0.133233;0.0262748;0.00592819;0.14294
0.133732;0.025793;0.00567565;0.14294
0.134231;0.0251833;0.00451239;0.14294
0.13473;0.0247084;0.00441303;0.14294
0.135229;0.0241904;0.00439232;0.14294
0.135728;0.0237819;0.00436335;0.14294
0.136227;0.0232823;0.00418533;0.14294
0.136726;0.0228611;0.00441302;0.14294
0.137225;0.0223863;0.00406113;0.14294
0.137724;0.0218969;0.00413151;0.14294
0.138223;0.0214608;0.00389141;0.14294
0.138722;0.0209919;0.00344846;0.14294
0.139221;0.0204394;0.00250873;0.14294
0.13972;0.019931;0.00252528;0.143195
0.140219;0.0194455;0.002517;0.144054
0.140718;0.0189847;0.00228931;0.143545
0.141217;0.0185404;0.00212371;0.14329
0.141716;0.0180164;0.00206576;0.142972
0.142215;0.0175635;0.0020285;0.14294
0.142714;0.0171056;0.00146963;0.143258
0.143213;0.0166458;0.00114258;0.14294
0.143712;0.0161631;0.000546454;0.143004
0.144211;0.0156627;0.000231829;0.143354
0.14471;0.0152443;9.10756e-05;0.14294
0.145209;0.0147371;-0.000182151;0.143736
0.145708;0.014219;-0.000662368;0.143195
0.146207;0.0137749;-0.00101425;0.14294
0.146706;0.0133811;-0.000848658;0.143386
0.147205;0.0128304;-0.00178425;0.143386
0.147704;0.0122807;-0.00189188;0.143831
0.148203;0.0118515;-0.00182979;0.144722
0.148702;0.0113215;-0.00206576;0.142972
0.149201;0.0107994;-0.00217339;0.14294
0.1497;0.0103227;-0.00252528;0.143035
0.150199;0.00986192;-0.00268673;0.14294
0.150698;0.00935563;-0.00381688;0.143067
0.151197;0.00880097;-0.00399904;0.14294
0.151696;0.00836186;-0.00413151;0.143577
0.152195;0.00789404;-0.00408597;0.14294
0.152694;0.00735327;-0.00412323;0.14294
0.153193;0.0068983;-0.00438405;0.14294
0.153692;0.00641767;-0.00473179;0.14294
0.154191;0.00593413;-0.00455377;0.14294
0.15469;0.00543968;-0.00570051;0.14294
0.155189;0.0050242;-0.00559699;0.14294
0.155688;0.00445081;-0.0059613;0.14294
0.156187;0.00395442;-0.00616414;0.14294
0.156686;0.00339389;-0.00625107;0.14294
0.157185;0.00291623;-0.00619726;0.143131
0.157684;0.00236358;-0.00614758;0.14294
0.158183;0.00189678;-0.00646635;0.14294
0.158682;0.00150401;-0.00638769;0.14294
0.159181;0.00105892;-0.00630075;0.143067
0.15968;0.000554624;-0.00685963;0.14294
0.160179;7.89505e-05;-0.00747645;0.14294
0.160678;-0.000382908;-0.00767517;0.143258
0.161177;-0.000892136;-0.00785317;0.14294
0.161676;-0.00133426;-0.00790285;0.14294
0.162175;-0.00188592;-0.00830856;0.14294
0.162674;-0.0023843;-0.00848243;0.14294
0.163173;-0.00283926;-0.00853212;0.14294
0.163672;-0.00330309;-0.00904957;0.14294
0.164171;-0.00375112;-0.00875982;0.14294
0.16467;-0.00427317;-0.00895852;0.142972
0.165169;-0.00479328;-0.00945527;0.14294
0.165668;-0.0053104;-0.0102832;0.14294
0.166167;-0.00580187;-0.0100348;0.14294
0.166666;-0.00631306;-0.0103826;0.14294
0.167165;-0.00686673;-0.0103743;0.14294
0.167664;-0.00735427;-0.01078;0.143067
0.168163;-0.00790784;-0.0111484;0.14294
0.168662;-0.00835594;-0.0115293;0.14294
0.169161;-0.00883451;-0.0122372;0.14294
0.16966;-0.00930037;-0.0118563;0.143449
0.170159;-0.00976814;-0.0123614;0.143004
0.170658;-0.0102596;-0.0123945;0.143195
0.171157;-0.010753;-0.0123945;0.143545
0.171656;-0.0112386;-0.0123945;0.143959
0.172155;-0.0117804;-0.0126056;0.143895
0.172654;-0.0122846;-0.0130031;0.14294
0.173153;-0.0127524;-0.0133053;0.14294
0.173652;-0.0132814;-0.013504;0.143163
0.174151;-0.0137334;-0.0138269;0.143099
0.17465;-0.0142496;-0.014216;0.143959
0.175149;-0.0146977;-0.0144603;0.14294
0.175648;-0.015191;-0.0144603;0.14294
0.176147;-0.0156844;-0.0151765;0.14294
0.176646;-0.016174;-0.0153876;0.14294
0.177145;-0.0166606;-0.0163894;0.14294
0.177644;-0.0170751;-0.0161742;0.14294
0.178143;-0.0175171;-0.0160251;0.14294
0.178642;-0.017973;-0.0165095;0.14294
0.179141;-0.0184567;-0.0166958;0.143195
0.17964;-0.0190113;-0.0167248;0.14294
0.180139;-0.0193932;-0.0166916;0.14294
0.180638;-0.0198512;-0.0169193;0.14294
0.181137;-0.0204353;-0.0178963;0.14294
0.181636;-0.0209752;-0.0181489;0.14294
0.182135;-0.0213719;-0.0181447;0.14294
0.182634;-0.0218356;-0.018538;0.14294
0.183133;-0.022265;-0.0185877;0.14294
0.183632;-0.0227496;-0.018538;0.14294
0.184131;-0.0232509;-0.0186746;0.142972
0.18463;-0.0237749;-0.0189064;0.14294
0.185129;-0.0242495;-0.0196474;0.14294
0.185628;-0.0247233;-0.0202187;0.14294
0.186127;-0.0252345;-0.0199331;0.14294
0.186626;-0.02565;-0.0203346;0.143099
0.187125;-0.0262105;-0.0208686;0.14294
0.187624;-0.0266803;-0.0210467;0.14294
0.188123;-0.0271955;-0.0207652;0.14294
0.188622;-0.0276041;-0.020997;0.14294
0.189121;-0.0280915;-0.021146;0.14294
0.18962;-0.0286235;-0.021767;0.14294
0.190119;-0.0291703;-0.0225371;0.14294
0.190618;-0.0296174;-0.0227234;0.14294
0.191117;-0.0300584;-0.0227234;0.14294
0.191616;-0.0305073;-0.0227276;0.143322
0.192115;-0.0309487;-0.0227234;0.143195
0.192614;-0.0314518;-0.0231871;0.143067
0.193113;-0.03198;-0.0238576;0.14294
0.193612;-0.0325374;-0.0242343;0.143545
0.194111;-0.0330219;-0.0247186;0.14294
0.19461;-0.0334741;-0.0246317;0.142972
0.195109;-0.0339762;-0.0246648;0.14294
0.195608;-0.0344274;-0.0248553;0.143099
0.196107;-0.0348792;-0.0248925;0.14294
0.196606;-0.0353341;-0.025261;0.143226
0.197105;-0.0357981;-0.0261512;0.14294
0.197604;-0.0362894;-0.0260022;0.144372
0.198103;-0.0368818;-0.026826;0.143704
0.198602;-0.0373317;-0.026797;0.144691
0.199101;-0.0378272;-0.0269254;0.143035
0.1996;-0.0384025;-0.0273435;0.14294
0.200099;-0.0388732;-0.0281134;0.14329
0.200598;-0.0392956;-0.0281713;0.143099
0.201097;-0.0396952;-0.0285563;0.14746
0.201596;-0.0402411;-0.0288088;0.144945
0.202095;-0.0407303;-0.0289206;0.14364
0.202594;-0.0411764;-0.0289496;0.143736
0.203093;-0.0417363;-0.0289206;0.145582
0.203592;-0.0422632;-0.0291855;0.144404
0.204091;-0.0428069;-0.029082;0.144468
0.20459;-0.0433942;-0.0291897;0.143322
0.205089;-0.0438254;-0.0298811;0.143386
0.205588;-0.0442585;-0.0298976;0.143004
0.206087;-0.0448122;-0.030233;0.143449
0.206586;-0.0453089;-0.0306801;0.14399
0.207085;-0.0457648;-0.0308085;0.143799
0.207584;-0.0461857;-0.0309161;0.143354
0.208083;-0.0467101;-0.0309865;0.143481
0.208582;-0.0471069;-0.0310651;0.143163
0.209081;-0.047681;-0.0310403;0.142972
0.20958;-0.0481962;-0.0314667;0.14294
0.210079;-0.0486603;-0.0315618;0.143417
0.210578;-0.0488715;-0.0317606;0.14294
0.211077;-0.0485348;-0.0314625;0.14294
0.211576;-0.048048;-0.031061;0.14294
0.212075;-0.0476033;-0.0310982;0.14294
0.212574;-0.0471009;-0.0309865;0.14294
0.213073;-0.0466053;-0.0310113;0.144181
0.213572;-0.0461082;-0.0307753;0.144786
0.214071;-0.0455486;-0.0304358;0.144436
0.21457;-0.0451182;-0.0307795;0.143226
0.215069;-0.0445822;-0.0297238;0.14294
0.215568;-0.0440939;-0.0297774;0.143067
0.216067;-0.0436418;-0.0291193;0.14294
0.216566;-0.0431927;-0.0289371;0.14294
0.217065;-0.042652;-0.0288005;0.143608
0.217564;-0.04213;-0.0286474;0.14329
0.218063;-0.0416611;-0.0285398;0.143799
0.218562;-0.0411941;-0.0284859;0.14329
0.219061;-0.040629;-0.0275629;0.143736
0.21956;-0.0401897;-0.0277575;0.143226
0.220059;-0.0396607;-0.0280058;0.14294
0.220558;-0.039202;-0.0271696;0.14294
0.221057;-0.0386601;-0.0268798;0.142972
0.221556;-0.038218;-0.0268012;0.143195
0.222055;-0.0377553;-0.0267515;0.14294
0.222554;-0.0372656;-0.0264285;0.143322
0.223053;-0.0368126;-0.0260476;0.144659
0.223552;-0.036254;-0.0259027;0.142972
0.224051;-0.0357655;-0.0257165;0.144372
0.22455;-0.0352779;-0.0254225;0.143704
0.225049;-0.034829;-0.0248925;0.143736
0.225548;-0.0343168;-0.0247518;0.143736
0.226047;-0.0338677;-0.0247849;0.143895
0.226546;-0.0333881;-0.0246731;0.143895
0.227045;-0.032868;-0.0242385;0.145836
0.227544;-0.0323845;-0.0239943;0.143768
0.228043;-0.0319335;-0.0237583;0.143354
0.228542;-0.031364;-0.0230049;0.14364
0.229041;-0.0308607;-0.0232699;0.143322
0.22954;-0.0303712;-0.0227234;0.144659
0.230039;-0.029943;-0.02274;0.144659
0.230538;-0.0294693;-0.0227069;0.14364
0.231037;-0.0290172;-0.0226447;0.14294
0.231536;-0.0285277;-0.0227234;0.142972
0.232035;-0.0280017;-0.0224502;0.143386
0.232534;-0.0274226;-0.0221355;0.143927
0.233033;-0.0269448;-0.0220155;0.14294
0.233532;-0.0264277;-0.021382;0.143099
0.234031;-0.0259055;-0.0207238;0.143195
0.23453;-0.0254951;-0.0207238;0.143099
0.235029;-0.0250608;-0.0206451;0.14294
0.235528;-0.024519;-0.020049;0.143513
0.236027;-0.0241213;-0.0198792;0.144086
0.236526;-0.0236348;-0.0200449;0.143067
0.237025;-0.0231738;-0.0191962;0.143799
0.237524;-0.0227763;-0.0192128;0.143545
0.238023;-0.0222482;-0.0186581;0.143863
0.238522;-0.0217903;-0.0185918;0.14294
0.239021;-0.0213147;-0.0185587;0.144022
0.23952;-0.020754;-0.0183103;0.143099
0.240019;-0.0202835;-0.0178508;0.146473
0.240518;-0.0197682;-0.0173954;0.144722
0.241017;-0.019331;-0.0165592;0.144181
0.241516;-0.018886;-0.0166958;0.14294
0.242015;-0.0184289;-0.016526;0.143354
0.242514;-0.0179454;-0.0164805;0.14294
0.243013;-0.0174264;-0.0164018;0.143131
0.243512;-0.0170681;-0.0160955;0.143226
0.244011;-0.0165234;-0.0155159;0.144531
0.24451;-0.0160604;-0.015251;0.143258
0.245009;-0.0156528;-0.015251;0.143035
0.245508;-0.0151329;-0.0154869;0.14294
0.246007;-0.0146542;-0.0146673;0.14294
0.246506;-0.0141657;-0.0145307;0.14294
0.247005;-0.0136436;-0.0140711;0.14294
0.247504;-0.0131412;-0.014038;0.14294
0.248003;-0.0126537;-0.0136696;0.14294
0.248502;-0.0121929;-0.0129286;0.14294
0.249001;-0.0116314;-0.012854;0.143863
0.2495;-0.0111271;-0.0126263;0.143004
0.249999;-0.010677;-0.0124814;0.14294
0.250498;-0.0101737;-0.0123986;0.14294
0.250997;-0.00959943;-0.0123904;0.143163
0.251496;-0.00918092;-0.0123324;0.14294
0.251995;-0.00865396;-0.0119184;0.14294
0.252494;-0.00811214;-0.0114672;0.14294
0.252993;-0.00763059;-0.0111112;0.14294
0.253492;-0.00714699;-0.0104405;0.14294
0.253991;-0.00664465;-0.0104116;0.143322
0.25449;-0.00618974;-0.0103412;0.143067
0.254989;-0.00568442;-0.0102667;0.143163
0.255488;-0.00522847;-0.0100804;0.143099
0.255987;-0.00467189;-0.00980719;0.14294
