t;vds;corrente;vg
0.000499;-0.0361622;-0.02488;0.574917
0.000998;-0.0365768;-0.0256874;0.579462
0.001497;-0.0370871;-0.0259359;0.581658
0.001996;-0.037526;-0.0266066;0.575134
0.002495;-0.0379446;-0.0263582;0.577457
0.002994;-0.0385969;-0.0268757;0.580289
0.003493;-0.0390784;-0.0268964;0.582867
0.003992;-0.0394387;-0.0273972;0.576661
0.004491;-0.0399943;-0.0276953;0.58083
0.00499;-0.0405499;-0.0284238;0.576692
0.005489;-0.0410264;-0.0285315;0.57752
0.005988;-0.0415002;-0.0287219;0.579717
0.006487;-0.0420442;-0.0289537;0.579525
0.006986;-0.0425453;-0.0289123;0.582549
0.007485;-0.0429845;-0.0289661;0.585795
0.007984;-0.0435284;-0.0294381;0.585827
0.008483;-0.0439929;-0.0291317;0.585065
0.008982;-0.0444233;-0.0292435;0.583885
0.009481;-0.0450018;-0.0301171;0.582453
0.00998;-0.0454608;-0.0300923;0.586145
0.010479;-0.0458938;-0.0308623;0.585827
0.010978;-0.0462775;-0.0308706;0.585286
0.011477;-0.0468879;-0.0309575;0.581848
0.011976;-0.0474451;-0.0309782;0.583154
0.012475;-0.0478646;-0.0309368;0.583567
0.012974;-0.0484224;-0.0310279;0.584236
0.013473;-0.048892;-0.0313466;0.585604
0.013972;-0.0487541;-0.0311479;0.586082
0.014471;-0.0482751;-0.0312638;0.585158
0.01497;-0.0478685;-0.0311811;0.583249
0.015469;-0.0472785;-0.0309492;0.582008
0.015968;-0.0467278;-0.0310403;0.583409
0.016467;-0.0462756;-0.0309616;0.582199
0.016966;-0.0458102;-0.0305973;0.580098
0.017465;-0.0453532;-0.0303778;0.578539
0.017964;-0.0448783;-0.0294339;0.584778
0.018463;-0.0444697;-0.0293801;0.580862
0.018962;-0.043931;-0.0291028;0.583599
0.019461;-0.0434316;-0.0289827;0.583853
0.01996;-0.043016;-0.028962;0.580322
0.020459;-0.0424409;-0.0288088;0.580321
0.020958;-0.0418586;-0.028635;0.583058
0.021457;-0.0413826;-0.0286763;0.580926
0.021956;-0.0408686;-0.0280969;0.580226
0.022455;-0.0403892;-0.0280141;0.578285
0.022954;-0.0398896;-0.0274594;0.575898
0.023453;-0.0395107;-0.0269999;0.576152
0.023952;-0.0389502;-0.0272317;0.57542
0.024451;-0.0384232;-0.0266025;0.57367
0.02495;-0.0380601;-0.0267432;0.576948
0.025449;-0.0375222;-0.0266024;0.574465
0.025948;-0.0370407;-0.0263665;0.573192
0.026447;-0.0365253;-0.0258282;0.57577
0.026946;-0.0360537;-0.0257454;0.577201
0.027445;-0.0355019;-0.0249257;0.576662
0.027944;-0.035046;-0.0248801;0.575229
0.028443;-0.0346178;-0.024789;0.575673
0.028942;-0.0340877;-0.0246317;0.576375
0.029441;-0.0336103;-0.0248594;0.575579
0.02994;-0.0330988;-0.0243213;0.575006
0.030439;-0.0326302;-0.0235265;0.577934
0.030938;-0.0320599;-0.0229428;0.577169
0.031437;-0.0316461;-0.0227814;0.576471
0.031936;-0.0311944;-0.0228103;0.576279
0.032435;-0.0306376;-0.022682;0.582071
0.032934;-0.0302341;-0.0225744;0.578412
0.033433;-0.0297418;-0.0226613;0.578857
0.033932;-0.029181;-0.0227069;0.579048
0.034431;-0.0287291;-0.0225951;0.580926
0.03493;-0.0282296;-0.0220196;0.58204
0.035429;-0.0276515;-0.0209639;0.584681
0.035928;-0.0272104;-0.0209639;0.582964
0.036427;-0.0267079;-0.0205996;0.58083
0.036926;-0.0262076;-0.0205458;0.584299
0.037425;-0.0256835;-0.0198875;0.581849
0.037924;-0.0253214;-0.0200365;0.580321
0.038423;-0.0248969;-0.0198213;0.581084
0.038922;-0.0243394;-0.0196185;0.584649
0.039421;-0.0238115;-0.0192666;0.586241
0.03992;-0.0233672;-0.0188319;0.58379
0.040419;-0.0229045;-0.0187284;0.585445
0.040918;-0.0223932;-0.0185628;0.585286
0.041417;-0.0219492;-0.0185007;0.58188
0.041916;-0.0215506;-0.0185587;0.575674
0.042415;-0.0209978;-0.0182524;0.57943
0.042914;-0.0205212;-0.0182068;0.577202
0.043413;-0.0200031;-0.0174989;0.580895
0.043912;-0.0195047;-0.0175858;0.57803
0.044411;-0.0191366;-0.0175776;0.574561
0.04491;-0.0186954;-0.0172505;0.576311
0.045409;-0.0181911;-0.0167827;0.579271
0.045908;-0.0176937;-0.0166751;0.577776
0.046407;-0.0172941;-0.0165716;0.575356
0.046906;-0.0167731;-0.016526;0.580703
0.047405;-0.0162065;-0.0164474;0.580576
0.047904;-0.0158147;-0.0160955;0.582517
0.048403;-0.0153193;-0.0156277;0.582644
0.048902;-0.0147697;-0.014895;0.581913
0.049401;-0.0142417;-0.0144106;0.583249
0.0499;-0.0139318;-0.0146963;0.579462
0.050399;-0.0134186;-0.0142657;0.581721
0.050898;-0.0129202;-0.0142202;0.581371
0.051397;-0.0125007;-0.0138849;0.57959
0.051896;-0.0119571;-0.0133343;0.579908
0.052395;-0.0113502;-0.0129327;0.580035
0.052894;-0.0108488;-0.0125601;0.58153
0.053393;-0.0103523;-0.0122952;0.581563
0.053892;-0.00979383;-0.0123076;0.581658
0.054391;-0.00934082;-0.0122827;0.581658
0.05489;-0.00891741;-0.0120675;0.583631
0.055389;-0.00834902;-0.012262;0.583886
0.055888;-0.00787824;-0.011964;0.584299
0.056387;-0.00747072;-0.0112768;0.582199
0.056886;-0.00701475;-0.0107469;0.584173
0.057385;-0.00646504;-0.0107552;0.581562
0.057884;-0.00600913;-0.0106144;0.580035
0.058383;-0.00546237;-0.0103288;0.581626
0.058882;-0.00493046;-0.0101673;0.583917
0.059381;-0.00440837;-0.00969125;0.584841
0.05988;-0.00390902;-0.00892954;0.587482
0.060379;-0.00340968;-0.00931871;0.584967
0.060878;-0.00295768;-0.00871842;0.586018
0.061377;-0.00250766;-0.00824232;0.586401
0.061876;-0.00193922;-0.00830856;0.585095
0.062375;-0.00144677;-0.00826302;0.58449
0.062874;-0.000988849;-0.0080436;0.581848
0.063373;-0.000534887;-0.00790285;0.58379
0.063872;-4.24358e-05;-0.00697968;0.585891
0.064371;0.00047074;-0.00733569;0.586591
0.06487;0.000883254;-0.00665264;0.586591
0.065369;0.00129873;-0.00637527;0.583568
0.065868;0.0018198;-0.00622209;0.584745
0.066367;0.0022945;-0.00622209;0.581881
0.066866;0.00282347;-0.00618483;0.581881
0.067365;0.00340079;-0.00619312;0.580067
0.067864;0.00386263;-0.00589919;0.583504
0.068363;0.004361;-0.00548523;0.583568
0.068862;0.00493046;-0.00488912;0.579908
0.069361;0.00536665;-0.00456206;0.581276
0.06986;0.00572885;-0.00471524;0.581881
0.070359;0.0062726;-0.00387899;0.584204
0.070858;0.00681738;-0.00403216;0.580798
0.071357;0.0072171;-0.00393694;0.58099
0.071856;0.00774895;-0.00375065;0.584267
0.072355;0.00829178;-0.00259152;0.585763
0.072854;0.00878123;-0.00327044;0.583026
0.073353;0.00926089;-0.00284404;0.581944
0.073852;0.00976518;-0.00264533;0.584522
0.074351;0.0102823;-0.00212785;0.586686
0.07485;0.0107185;-0.00233485;0.585986
0.075349;0.0113196;-0.00201608;0.585318
0.075848;0.0118139;-0.000712045;0.587641
0.076347;0.012182;-0.00158554;0.58258
0.076846;0.0126241;-0.00137027;0.583027
0.077345;0.0131945;-0.00124608;0.585254
0.077844;0.0136298;-0.00041812;0.583535
0.078343;0.0140848;-8.2796e-06;0.584968
0.078842;0.0146276;0;0.583535
0.079341;0.0150903;0;0.585923
0.07984;0.0155818;4.1398e-06;0.584681
0.080339;0.0160763;0.000339464;0.582708
0.080838;0.0166201;0.00146963;0.581913
0.081337;0.0170721;0.00187946;0.581944
0.081836;0.0175161;0.00198296;0.582166
0.082335;0.0179207;0.0019664;0.583313
0.082834;0.0182898;0.00222721;0.579017
0.083333;0.0187704;0.00214855;0.578444
0.083832;0.0192698;0.00245904;0.57507
0.084331;0.0196893;0.00271984;0.576947
0.08483;0.0202045;0.00362232;0.579812
0.085329;0.0207926;0.00394522;0.580385
0.085828;0.0213334;0.00387071;0.580194
0.086327;0.021735;0.00413151;0.578252
0.086826;0.022265;0.00409425;0.577202
0.087325;0.022789;0.00425571;0.583186
0.087824;0.0231669;0.00433851;0.584076
0.088323;0.0236703;0.0044006;0.582389
0.088822;0.0241134;0.004649;0.580481
0.089321;0.0245505;0.00446683;0.575993
0.08982;0.0250303;0.00563012;0.581498
0.090319;0.0255642;0.00541484;0.579111
0.090818;0.0260053;0.00605236;0.577075
0.091317;0.0265312;0.00619726;0.576884
0.091816;0.027162;0.00617242;0.579462
0.092315;0.0276652;0.00621795;0.581181
0.092814;0.0280234;0.00627177;0.579526
0.093313;0.028512;0.00672301;0.580895
0.093812;0.0291199;0.00746818;0.58379
0.094311;0.029574;0.00769586;0.583185
0.09481;0.0300189;0.00801876;0.579462
0.095309;0.0305676;0.00790699;0.579111
0.095808;0.0310345;0.00815539;0.577965
0.096307;0.0315811;0.00835824;0.582231
0.096806;0.0319879;0.00826302;0.577743
0.097305;0.0325127;0.00842448;0.583536
0.097804;0.0329922;0.00899576;0.583981
0.098303;0.0334425;0.00966227;0.581277
0.098802;0.0340354;0.0100348;0.577743
0.099301;0.0344945;0.0096664;0.581372
0.0998;0.0349957;0.0102004;0.579271
0.100299;0.035567;0.0102625;0.58153
0.100798;0.0360951;0.0103453;0.584585
0.101297;0.0365185;0.0102998;0.5836
0.101796;0.037016;0.0104902;0.5857
0.102295;0.0374461;0.010453;0.581975
0.102794;0.0378686;0.0109456;0.583695
0.103293;0.0383275;0.011223;0.586081
0.103792;0.0388416;0.0113182;0.58449
0.104291;0.039342;0.0117404;0.585636
0.10479;0.0397623;0.0118853;0.583632
0.105289;0.0403606;0.0123531;0.585381
0.105788;0.040828;0.0124483;0.586591
0.106287;0.0412603;0.0125642;0.585222
0.106786;0.0417649;0.0123986;0.583154
0.107285;0.0422415;0.0127257;0.583281
0.107784;0.0427674;0.0130445;0.584777
0.108283;0.0432786;0.0132101;0.582612
0.108782;0.0437662;0.0140546;0.584268
0.109281;0.044216;0.0140836;0.584777
0.10978;0.0446227;0.0144023;0.585986
0.110279;0.0451914;0.0146673;0.586591
0.110778;0.0456868;0.0147998;0.587004
0.111277;0.0459944;0.0145555;0.586909
0.111776;0.046484;0.0154455;0.587641
0.112275;0.0469767;0.0155532;0.58745
0.112774;0.0474578;0.0158637;0.587386
0.113273;0.047986;0.0165716;0.587164
0.113772;0.0482741;0.0163894;0.584555
0.114271;0.0478537;0.016526;0.583726
0.11477;0.0473259;0.0159175;0.580544
0.115269;0.0467979;0.0155821;0.58239
0.115768;0.0463092;0.0154042;0.582453
0.116267;0.0458191;0.0150978;0.581245
0.116766;0.0453947;0.0148577;0.580544
0.117265;0.0449474;0.0145307;0.579939
0.117764;0.0444716;0.014866;0.579144
0.118263;0.0439675;0.0144106;0.578698
0.118762;0.0436595;0.014274;0.578094
0.119261;0.0430753;0.0143692;0.584076
0.11976;0.042584;0.0140339;0.583441
0.120259;0.0421053;0.0130403;0.579239
0.120758;0.0417026;0.0128499;0.585222
0.121257;0.0411507;0.0125891;0.582708
0.121756;0.0405817;0.0123531;0.579461
0.122255;0.0400919;0.0122165;0.582135
0.122754;0.0395482;0.0114175;0.578349
0.123253;0.0390637;0.0116452;0.576438
0.123752;0.0386946;0.0109414;0.575547
0.124251;0.0381864;0.0110284;0.57542
0.12475;0.0377572;0.0109994;0.577552
0.125249;0.0373377;0.010602;0.575706
0.125748;0.03678;0.0103577;0.574656
0.126247;0.0362579;0.0105316;0.578857
0.126746;0.0357754;0.010395;0.58414
0.127245;0.0353391;0.0101176;0.583695
0.127744;0.0347925;0.00978239;0.581848
0.128243;0.0342497;0.00930626;0.583918
0.128742;0.0337799;0.00963743;0.585986
0.129241;0.0332578;0.00957538;0.584363
0.12974;0.0327792;0.00865218;0.57787
0.130239;0.0323688;0.0084783;0.582263
0.130738;0.0319068;0.00828372;0.576503
0.131237;0.0313206;0.00826302;0.580862
0.131736;0.0308271;0.00800635;0.576057
0.132235;0.0303288;0.00817608;0.576057
0.132734;0.0298375;0.00808086;0.581849
0.133233;0.0293488;0.00752613;0.578762
0.133732;0.0289728;0.00700865;0.577679
0.134231;0.0283648;0.00672715;0.575802
0.13473;0.0278488;0.00650773;0.575675
0.135229;0.0273802;0.00652016;0.582358
0.135728;0.0268549;0.00633387;0.579557
0.136227;0.026258;0.00623037;0.576375
0.136726;0.0259174;0.00619726;0.57577
0.137225;0.0254665;0.00601925;0.574623
0.137724;0.0249502;0.00581641;0.578602
0.138223;0.0244203;0.00485601;0.57959
0.138722;0.0239931;0.00517061;0.582899
0.139221;0.0234995;0.00455792;0.578475
0.13972;0.023017;0.00417705;0.582231
0.140219;0.0225907;0.00424329;0.582135
0.140718;0.022113;0.00420189;0.579717
0.141217;0.0215851;0.00420603;0.580544
0.141716;0.021139;0.00414393;0.582803
0.142215;0.0205991;0.00383345;0.58134
0.142714;0.0200406;0.00385829;0.580384
0.143213;0.0196163;0.00354781;0.58379
0.143712;0.0192156;0.00258737;0.582612
0.144211;0.0186777;0.00281507;0.583631
0.14471;0.0181891;0.00215269;0.5871
0.145209;0.0177973;0.00211543;0.583631
0.145708;0.0173257;0.00206162;0.586622
0.146207;0.0168323;0.00189188;0.587641
0.146706;0.0164405;0.00189188;0.5864
0.147205;0.0159667;0.00130403;0.586304
0.147704;0.0154249;0.000670647;0.585031
0.148203;0.0148586;0.000120054;0.585126
0.148702;0.0143858;0;0.586718
0.149201;0.0138756;-0.000596131;0.582995
0.1497;0.0134087;-0.00148618;0.583886
0.150199;0.0129607;-0.00133301;0.58414
0.150698;0.0124761;-0.00113016;0.585922
0.151197;0.0120222;-0.00112188;0.583185
0.151696;0.0115564;-0.00205748;0.58204
0.152195;0.0111853;-0.00204092;0.581753
0.152694;0.0105625;-0.00206576;0.580321
0.153193;0.0100533;-0.00206576;0.580289
0.153692;0.00963003;-0.00210301;0.580035
0.154191;0.00901314;-0.00247146;0.58344
0.15469;0.00845561;-0.002517;0.582422
0.155189;0.00804601;-0.00297652;0.583631
0.155688;0.00752501;-0.00346915;0.582295
0.156187;0.00699304;-0.00372995;0.579303
0.156686;0.00654498;-0.00399075;0.581817
0.157185;0.00611375;-0.00412323;0.585349
0.157684;0.00558278;-0.00412737;0.584554
0.158183;0.0051515;-0.00411909;0.583026
0.158682;0.00472519;-0.00413565;0.586591
0.159181;0.00407975;-0.00470697;0.584681
0.15968;0.00359422;-0.00552662;0.583217
0.160179;0.0031827;-0.00528236;0.584618
0.160678;0.00259352;-0.00580398;0.585541
0.161177;0.00205566;-0.00599441;0.587036
0.161676;0.00159579;-0.00596129;0.585795
0.162175;0.00119807;-0.00619726;0.585699
0.162674;0.000726341;-0.00621381;0.583472
0.163173;0.000192441;-0.00635456;0.579653
0.163672;-0.000258562;-0.00668575;0.582931
0.164171;-0.000748052;-0.0073564;0.581594
0.16467;-0.0013165;-0.00789043;0.582389
0.165169;-0.00162933;-0.00814711;0.578921
0.165668;-0.00219581;-0.008292;0.576916
0.166167;-0.00275044;-0.0082713;0.577998
0.166666;-0.0031442;-0.00826302;0.578762
0.167165;-0.00360902;-0.00856522;0.578348
0.167664;-0.00420902;-0.009062;0.579812
0.168163;-0.00477453;-0.0100431;0.574338
0.168662;-0.00514659;-0.00987341;0.576565
0.169161;-0.00566372;-0.00991479;0.575515
0.16966;-0.00613444;-0.0103122;0.575674
0.170159;-0.00659435;-0.0103163;0.576756
0.170658;-0.00712236;-0.0103288;0.575484
0.171157;-0.00765619;-0.0105068;0.574975
0.171656;-0.00801839;-0.0104778;0.576215
0.172155;-0.00855131;-0.0105896;0.577012
0.172654;-0.00909509;-0.011521;0.57803
0.173153;-0.00955297;-0.0110656;0.581244
0.173652;-0.0100839;-0.0122041;0.575388
0.174151;-0.0105665;-0.0123573;0.57663
0.17465;-0.0110945;-0.0123945;0.577839
0.175149;-0.0115712;-0.0124069;0.579143
0.175648;-0.0120853;-0.012527;0.581403
0.176147;-0.0126419;-0.0131728;0.582709
0.176646;-0.0130633;-0.0133715;0.585317
0.177145;-0.01354;-0.0133632;0.585509
0.177644;-0.0141035;-0.0141001;0.585318
0.178143;-0.0145684;-0.0140546;0.586973
0.178642;-0.0149196;-0.014096;0.58589
0.179141;-0.0155068;-0.0144023;0.586209
0.17964;-0.0159637;-0.0148329;0.584872
0.180139;-0.0164977;-0.0151848;0.583632
0.180638;-0.0169793;-0.016199;0.582422
0.181137;-0.01745;-0.0159506;0.579462
0.181636;-0.0179187;-0.0164143;0.578157
0.182135;-0.0183185;-0.0164598;0.579334
0.182634;-0.0188435;-0.0166213;0.578061
0.183133;-0.0192215;-0.01694;0.578762
0.183632;-0.0196705;-0.017234;0.580098
0.184131;-0.0201561;-0.017888;0.575802
0.18463;-0.0206376;-0.0175072;0.581052
0.185129;-0.021136;-0.0184014;0.581784
0.185628;-0.0216166;-0.0185918;0.580163
0.186127;-0.0221465;-0.0185918;0.580257
0.186626;-0.0226342;-0.0185918;0.582358
0.187125;-0.0231146;-0.0188319;0.581912
0.187624;-0.0236664;-0.0187077;0.582486
0.188123;-0.0240453;-0.0188733;0.584999
0.188622;-0.0244824;-0.019751;0.583949
0.189121;-0.0249671;-0.0202932;0.585732
0.18962;-0.0254842;-0.0201276;0.58554
0.190119;-0.0259333;-0.0208148;0.57822
0.190618;-0.0264;-0.020761;0.577329
0.191117;-0.0269706;-0.0211916;0.577583
0.191616;-0.0274195;-0.021175;0.583631
0.192115;-0.0278536;-0.021647;0.582262
0.192614;-0.0284439;-0.0214524;0.583917
0.193113;-0.0288997;-0.0219741;0.582612
0.193612;-0.0293776;-0.0224874;0.584331
0.194111;-0.029938;-0.0225951;0.581053
0.19461;-0.0303987;-0.0227234;0.580925
0.195109;-0.0307838;-0.0227234;0.581181
0.195608;-0.0313136;-0.0228642;0.582231
0.196107;-0.0318329;-0.0228807;0.583026
0.196606;-0.0322789;-0.0236299;0.580545
0.197105;-0.0328077;-0.0245531;0.58118
0.197604;-0.0332915;-0.0246483;0.585541
0.198103;-0.0337503;-0.0247352;0.583918
0.198602;-0.034223;-0.0250375;0.580512
0.199101;-0.0347608;-0.0249505;0.584968
0.1996;-0.0352196;-0.0259317;0.58013
0.200099;-0.0356924;-0.0264493;0.581467
0.200598;-0.0361958;-0.0264493;0.584554
0.201097;-0.036795;-0.0265569;0.581148
0.201596;-0.0371946;-0.0266646;0.580894
0.202095;-0.0376692;-0.0268633;0.579939
0.202594;-0.0381765;-0.026913;0.581912
0.203093;-0.038592;-0.0271282;0.581562
0.203592;-0.0390833;-0.0274055;0.579208
0.204091;-0.0395848;-0.0282996;0.577903
0.20459;-0.0400605;-0.0284321;0.583122
0.205089;-0.0405745;-0.0285315;0.582644
0.205588;-0.041134;-0.0288957;0.579971
0.206087;-0.0416702;-0.0288792;0.581181
0.206586;-0.0421695;-0.0290407;0.581022
0.207085;-0.0426943;-0.0289289;0.584172
0.207584;-0.043253;-0.0290448;0.586082
0.208083;-0.043702;-0.0300177;0.57787
0.208582;-0.044144;-0.0304566;0.580162
0.209081;-0.0446631;-0.0304235;0.577934
0.20958;-0.0451164;-0.0304152;0.580449
0.210079;-0.0455438;-0.0309451;0.577425
0.210578;-0.0460052;-0.0309824;0.585413
0.211077;-0.046561;-0.0309989;0.584872
0.211576;-0.0469362;-0.0309865;0.587164
0.212075;-0.0475181;-0.0311893;0.585222
0.212574;-0.048062;-0.0317606;0.584395
0.213073;-0.0484836;-0.0316943;0.584364
0.213572;-0.0489058;-0.0319386;0.585572
0.214071;-0.0487314;-0.0315536;0.585668
0.21457;-0.0483008;-0.0309865;0.581881
0.215069;-0.0476901;-0.0309865;0.583568
0.215568;-0.0471601;-0.0304773;0.582263
0.216067;-0.0466824;-0.0307878;0.578094
0.216566;-0.0461663;-0.0303489;0.577647
0.217065;-0.045746;-0.0309658;0.579557
0.217564;-0.0452821;-0.0305518;0.57908
0.218063;-0.0447528;-0.0303571;0.58223
0.218562;-0.0443237;-0.0297403;0.58465
0.219061;-0.0438777;-0.0293511;0.585508
0.21956;-0.0434257;-0.0289247;0.586463
0.220059;-0.0428819;-0.029256;0.585414
0.220558;-0.0422868;-0.0288006;0.585317
0.221057;-0.0418132;-0.0285563;0.586146
0.221556;-0.0412276;-0.0283783;0.585891
0.222055;-0.0407563;-0.0281548;0.584045
0.222554;-0.0403102;-0.0268881;0.583249
0.223053;-0.0398343;-0.0270247;0.584936
0.223552;-0.0393184;-0.026855;0.584045
0.224051;-0.0388771;-0.0264327;0.586241
0.22455;-0.0384173;-0.0263416;0.584012
0.225049;-0.037848;-0.0260021;0.58535
0.225548;-0.0374235;-0.0260477;0.584745
0.226047;-0.0369666;-0.0251078;0.586113
0.226546;-0.0364789;-0.0251079;0.583949
0.227045;-0.0359491;-0.0257703;0.58414
0.227544;-0.0354506;-0.0249671;0.585923
0.228043;-0.0349858;-0.0249546;0.581021
0.228542;-0.034453;-0.0247559;0.582932
0.229041;-0.0340739;-0.0247269;0.582199
0.22954;-0.0335323;-0.0243916;0.579494
0.230039;-0.033007;-0.0244206;0.580513
0.230538;-0.032495;-0.0239735;0.577998
0.231037;-0.0320155;-0.0237335;0.582167
0.231536;-0.0315248;-0.0236507;0.575739
0.232035;-0.0310326;-0.0232781;0.576853
0.232534;-0.0305922;-0.0228228;0.578315
0.233033;-0.0300949;-0.0229677;0.578793
0.233532;-0.0296954;-0.022682;0.580225
0.234031;-0.0291524;-0.0226406;0.581021
0.23453;-0.0285751;-0.0222307;0.582358
0.235029;-0.0280895;-0.0217505;0.580258
0.235528;-0.0275676;-0.0212703;0.585381
0.236027;-0.0270692;-0.0208769;0.584649
0.236526;-0.0265737;-0.0206865;0.585477
0.237025;-0.0260576;-0.0203967;0.586463
0.237524;-0.0256243;-0.020136;0.586973
0.238023;-0.025205;-0.0200946;0.584872
0.238522;-0.0247114;-0.0196143;0.586813
0.239021;-0.0242368;-0.0193867;0.587291
0.23952;-0.0238253;-0.0195192;0.585764
0.240019;-0.0232133;-0.0186829;0.587577
0.240518;-0.0227269;-0.0186705;0.585668
0.241017;-0.0223103;-0.0186663;0.582676
0.241516;-0.0217341;-0.0185007;0.582423
0.242015;-0.0212634;-0.0181364;0.583058
0.242514;-0.0208517;-0.018095;0.583217
0.243013;-0.0203663;-0.0179005;0.585827
0.243512;-0.01978;-0.0170849;0.58605
0.244011;-0.019334;-0.0167579;0.586686
0.24451;-0.0189521;-0.0166254;0.586845
0.245009;-0.0184546;-0.0165053;0.587036
0.245508;-0.0180135;-0.0164888;0.586813
0.246007;-0.0175654;-0.016435;0.58554
0.246506;-0.0170139;-0.0161534;0.584936
0.247005;-0.0165796;-0.0160458;0.583058
0.247504;-0.0161325;-0.0150192;0.584427
0.248003;-0.0155966;-0.0152551;0.58293
0.248502;-0.0151812;-0.0150688;0.582739
0.249001;-0.0147668;-0.0145762;0.579685
0.2495;-0.0142131;-0.0145058;0.576916
0.249999;-0.0137117;-0.0139594;0.583345
0.250498;-0.0132478;-0.0136158;0.582677
0.250997;-0.0128166;-0.0137068;0.579462
0.251496;-0.012263;-0.0128044;0.578285
0.251995;-0.0118258;-0.012676;0.581021
0.252494;-0.0113768;-0.0128044;0.583503
0.252993;-0.0108083;-0.0124773;0.585922
0.253492;-0.0102566;-0.0123531;0.585604
