t;vds;corrente;vg
0;-0.0021114;0.0152784;-0.396666
2e-05;-0.00179311;0.0202755;-0.399292
4e-05;-0.00203232;0.0150599;-0.399372
6e-05;-0.00206494;0.0176414;-0.399372
8e-05;-0.00206;0.0166096;-0.399372
0.0001;-0.00192556;0.0167189;-0.399372
0.00012;-0.000834279;0.0244552;-0.399372
0.00014;-0.000831314;0.0258876;-0.399372
0.00016;-0.000141353;0.0273887;-0.399372
0.00018;0.00154105;0.0404822;-0.399228
0.0002;0.00337171;0.0469399;-0.399372
0.00022;0.00520831;0.0616357;-0.399372
0.00024;0.00690455;0.0700357;-0.399372
0.00026;0.00895367;0.0808835;-0.399372
0.00028;0.0108239;0.0914805;-0.39926
0.0003;0.012701;0.105124;-0.399372
0.00032;0.0145653;0.11312;-0.399372
0.00034;0.0163237;0.127767;-0.39934
0.00036;0.0182987;0.138174;-0.399372
0.00038;0.020253;0.145505;-0.399372
0.0004;0.0220461;0.156653;-0.399372
0.00042;0.0238371;0.169487;-0.399356
0.00044;0.0259021;0.179505;-0.39918
0.00046;0.0275242;0.186801;-0.399372
0.00048;0.0294617;0.199502;-0.399372
0.0005;0.0313457;0.209792;-0.399356
0.00052;0.0330381;0.220158;-0.399372
0.00054;0.0351089;0.228497;-0.399372
0.00056;0.0370335;0.233073;-0.39934
0.00058;0.0387791;0.23733;-0.399372
0.0006;0.0407965;0.24469;-0.39918
0.00062;0.0425442;0.248295;-0.399372
0.00064;0.0443875;0.249408;-0.399292
0.00066;0.0455402;0.252321;-0.399372
0.00068;0.0438401;0.250791;-0.399356
0.0007;0.0418749;0.246822;-0.399164
0.00072;0.0401046;0.245135;-0.399372
0.00074;0.0382007;0.2379;-0.399244
0.00076;0.0363118;0.230063;-0.399324
0.00078;0.0343991;0.222408;-0.399212
0.0008;0.0324488;0.21461;-0.399276
0.00082;0.0306715;0.208675;-0.399324
0.00084;0.0287153;0.197827;-0.3991
0.00086;0.0269232;0.191527;-0.399356
0.00088;0.0250549;0.174258;-0.399372
0.0009;0.023248;0.169228;-0.399372
0.00092;0.0214925;0.151963;-0.399372
0.00094;0.0195234;0.148196;-0.399372
0.00096;0.0176799;0.132315;-0.399308
0.00098;0.0158157;0.123146;-0.399372
0.001;0.0139039;0.111683;-0.399228
0.00102;0.0120664;0.102248;-0.399372
0.00104;0.0100311;0.0903395;-0.399372
0.00106;0.00819946;0.0789534;-0.399308
0.00108;0.00621261;0.0661958;-0.399372
0.0011;0.00452231;0.0600456;-0.39918
0.00112;0.00256116;0.0461024;-0.399132
0.00114;0.000738395;0.0289465;-0.398812
0.00116;-0.000813518;0.0273118;-0.39878
0.00118;-0.00250481;0.0128872;-0.398908
0.0012;-0.00500766;0.000829472;-0.399372
0.00122;-0.00646863;-0.006919;-0.399372
0.00124;-0.00840803;-0.0193044;-0.399276
0.00126;-0.0104423;-0.031799;-0.399372
0.00128;-0.0121395;-0.04204;-0.399372
0.0013;-0.0140502;-0.0545063;-0.399356
0.00132;-0.016132;-0.0594912;-0.399372
0.00134;-0.0177907;-0.0735356;-0.399372
0.00136;-0.0197271;-0.0875234;-0.399372
0.00138;-0.0216664;-0.0960122;-0.399372
0.0014;-0.0234467;-0.106176;-0.399276
0.00142;-0.0253526;-0.119966;-0.399372
0.00144;-0.0273334;-0.127128;-0.399372
0.00146;-0.0291879;-0.1408;-0.399372
0.00148;-0.0310393;-0.146404;-0.399372
0.0015;-0.0327563;-0.157911;-0.399372
0.00152;-0.0346146;-0.17096;-0.399372
0.00154;-0.0367814;-0.179611;-0.399372
0.00156;-0.0384746;-0.190507;-0.399372
0.00158;-0.040311;-0.200647;-0.399356
0.0016;-0.0423228;-0.207348;-0.399372
0.00162;-0.0442432;-0.216176;-0.399372
0.00164;-0.046001;-0.226045;-0.399372
0.00166;-0.0472119;-0.229662;-0.399372
0.00168;-0.0458199;-0.223674;-0.399372
0.0017;-0.043855;-0.215319;-0.399372
0.00172;-0.0420647;-0.207343;-0.399372
0.00174;-0.040162;-0.198162;-0.399372
0.00176;-0.0382402;-0.191106;-0.399372
0.00178;-0.0362535;-0.176427;-0.399372
0.0018;-0.0345957;-0.167954;-0.399372
0.00182;-0.0326425;-0.155637;-0.399372
0.00184;-0.0306666;-0.147241;-0.399372
0.00186;-0.0290573;-0.135155;-0.399372
0.00188;-0.0269667;-0.126622;-0.399372
0.0019;-0.0251004;-0.115009;-0.399372
0.00192;-0.0232954;-0.105351;-0.399372
0.00194;-0.0213185;-0.0933863;-0.399372
0.00196;-0.0194927;-0.0830846;-0.399372
0.00198;-0.0176938;-0.0714194;-0.399372
0.002;-0.015785;-0.0638449;-0.399372
0.00202;-0.0139336;-0.0483076;-0.399356
0.00204;-0.0119764;-0.040899;-0.399356
0.00206;-0.010038;-0.0310829;-0.399372
0.00208;-0.00828249;-0.0149911;-0.399372
0.0021;-0.00628181;-0.00974728;-0.399372
0.00212;-0.00443532;0.00398955;-0.399372
0.00214;-0.00254435;0.0154403;-0.39934
0.00216;-0.000653387;0.0268344;-0.399372
0.00218;0.00110117;0.0352909;-0.399372
0.0022;0.00284288;0.0458111;-0.399372
0.00222;0.00474867;0.0560358;-0.399324
0.00224;0.00661394;0.073754;-0.399372
0.00226;0.00857903;0.0758378;-0.399372
0.00228;0.010387;0.0910354;-0.399372
0.0023;0.0123056;0.104441;-0.399324
0.00232;0.0140997;0.120917;-0.399292
0.00234;0.0160144;0.121244;-0.399372
0.00236;0.0179705;0.142398;-0.399372
0.00238;0.0196035;0.143863;-0.399372
0.0024;0.0218662;0.163924;-0.399148
0.00242;0.0237126;0.167355;-0.399372
0.00244;0.0245657;0.185486;-0.399372
0.00246;0.0280184;0.190276;-0.398683
0.00248;0.0287045;0.192356;-0.399372
0.0025;0.0303988;0.211815;-0.399292
0.00252;0.0336745;0.221517;-0.399356
0.00254;0.0339681;0.228068;-0.399372
0.00256;0.0363296;0.234724;-0.399132
0.00258;0.0390538;0.241963;-0.399324
0.0026;0.0397538;0.247065;-0.399372
0.00262;0.0421171;0.250824;-0.399212
0.00264;0.0445854;0.251953;-0.398699
0.00266;0.0449421;0.254296;-0.399196
0.00268;0.0444422;0.253896;-0.399324
0.0027;0.0425839;0.25082;-0.399083
0.00272;0.0399673;0.245879;-0.399036
0.00274;0.0389036;0.241627;-0.398603
0.00276;0.036721;0.235477;-0.399308
0.00278;0.0346106;0.225369;-0.39926
0.0028;0.0331022;0.218952;-0.399372
0.00282;0.0310364;0.209998;-0.39926
0.00284;0.0290277;0.205539;-0.399276
0.00286;0.0274808;0.191911;-0.39934
0.00288;0.0253347;0.182071;-0.399372
0.0029;0.0236127;0.170462;-0.399276
0.00292;0.0219275;0.158567;-0.399308
0.00294;0.0197627;0.148678;-0.399068
0.00296;0.0179725;0.142034;-0.398684
0.00298;0.0161933;0.125279;-0.399372
0.003;0.0143201;0.115713;-0.399372
0.00302;0.0124716;0.10686;-0.399372
0.00304;0.010549;0.0943048;-0.399356
0.00306;0.00895466;0.0810453;-0.399083
0.00308;0.00656056;0.0699466;-0.399356
0.0031;0.0046518;0.0578363;-0.398987
0.00312;0.00318786;0.0490723;-0.399276
0.00314;0.00138684;0.034243;-0.398715
0.00316;-0.000490287;0.0235205;-0.399035
0.00318;-0.00246033;0.0125877;-0.399372
0.0032;-0.00425542;0.00555138;-0.399372
0.00322;-0.00621261;-0.00786581;-0.399372
0.00324;-0.00818464;-0.0174674;-0.399324
0.00326;-0.00991447;-0.0313661;-0.399164
0.00328;-0.012013;-0.0415909;-0.399196
0.0033;-0.0138357;-0.0482833;-0.399308
0.00332;-0.0155241;-0.0599121;-0.399372
0.00334;-0.0177827;-0.0687085;-0.399372
0.00336;-0.0192022;-0.079439;-0.399372
0.00338;-0.0212049;-0.0940782;-0.399356
0.0034;-0.0232233;-0.105031;-0.399372
0.00342;-0.0249127;-0.116344;-0.39934
0.00344;-0.0268818;-0.125699;-0.399372
0.00346;-0.0289061;-0.140168;-0.39934
0.00348;-0.0305579;-0.147092;-0.399372
0.0035;-0.0325289;-0.161897;-0.399372
0.00352;-0.0343468;-0.172841;-0.399372
0.00354;-0.0360626;-0.17605;-0.399372
0.00356;-0.0382018;-0.192911;-0.399372
0.00358;-0.03997;-0.198074;-0.399372
0.0036;-0.0417862;-0.210524;-0.399372
0.00362;-0.0438103;-0.213065;-0.399372
0.00364;-0.0454347;-0.228323;-0.399372
0.00366;-0.0471615;-0.229889;-0.399372
0.00368;-0.0461669;-0.227186;-0.399372
0.0037;-0.044192;-0.219118;-0.399372
0.00372;-0.0423692;-0.208881;-0.399372
0.00374;-0.0404475;-0.200477;-0.399372
0.00376;-0.038697;-0.192292;-0.399372
0.00378;-0.0367121;-0.18413;-0.399372
0.0038;-0.0349082;-0.170693;-0.399372
0.00382;-0.0329905;-0.162326;-0.399372
0.00384;-0.0311252;-0.14996;-0.399372
0.00386;-0.029347;-0.141609;-0.399372
0.00388;-0.0274432;-0.126982;-0.399372
0.0039;-0.0254306;-0.11838;-0.399372
0.00392;-0.0236058;-0.106019;-0.399324
0.00394;-0.0218405;-0.0980758;-0.39926
0.00396;-0.0198487;-0.0880088;-0.399372
0.00398;-0.0180229;-0.0749517;-0.399372
0.004;-0.0160816;-0.0640513;-0.399372
0.00402;-0.0143458;-0.0543081;-0.399228
0.00404;-0.0124885;-0.0396365;-0.399356
0.00406;-0.0105056;-0.0314956;-0.399372
0.00408;-0.00878365;-0.0185073;-0.399372
0.0041;-0.00695694;-0.0129721;-0.399372
0.00412;-0.00483566;0.00214853;-0.399372
0.00414;-0.00304057;0.0153351;-0.399324
0.00416;-0.00106657;0.0205466;-0.399276
0.00418;0.000674145;0.0312245;-0.399276
0.0042;0.00241684;0.0456775;-0.399372
0.00422;0.00446201;0.0556595;-0.399372
0.00424;0.00631344;0.0670212;-0.399372
0.00426;0.0081105;0.0774483;-0.399372
0.00428;0.0100331;0.0885429;-0.399324
0.0043;0.0118222;0.101964;-0.399372
0.00432;0.0138021;0.111088;-0.399308
0.00434;0.0157603;0.121601;-0.399372
0.00436;0.0174378;0.136159;-0.399372
0.00438;0.019302;0.143373;-0.399356
0.0044;0.0213106;0.157256;-0.399372
0.00442;0.0230227;0.168371;-0.399372
0.00444;0.0249542;0.177685;-0.399356
0.00446;0.0269411;0.189075;-0.399164
0.00448;0.0286294;0.19898;-0.399292
0.0045;0.0304798;0.210771;-0.399372
0.00452;0.0324043;0.221744;-0.399244
0.00454;0.0341539;0.228861;-0.399116
0.00456;0.0361941;0.23258;-0.399372
0.00458;0.0380565;0.242663;-0.399372
0.0046;0.039889;0.244977;-0.399372
0.00462;0.0416498;0.249873;-0.399099
0.00464;0.0436463;0.252418;-0.39926
0.00466;0.0454158;0.254563;-0.39934
0.00468;0.0443838;0.251893;-0.39918
0.0047;0.0425452;0.251702;-0.39934
0.00472;0.0407836;0.248602;-0.399372
0.00474;0.0388602;0.242578;-0.399372
0.00476;0.0371173;0.237022;-0.39902
0.00478;0.0351207;0.229869;-0.399356
0.0048;0.0332743;0.224556;-0.3991
0.00482;0.031401;0.216532;-0.398844
0.00484;0.0295338;0.201392;-0.399372
0.00486;0.0277279;0.193364;-0.399372
0.00488;0.025834;0.184818;-0.399228
0.0049;0.0238976;0.171102;-0.399372
0.00492;0.0220669;0.157417;-0.399372
0.00494;0.0202154;0.152052;-0.399372
0.00496;0.0182019;0.140617;-0.399372
0.00498;0.016562;0.131514;-0.399372
0.005;0.0149804;0.116049;-0.399372
0.00502;0.0128038;0.110166;-0.398907
0.00504;0.0107428;0.0965746;-0.399116
0.00506;0.00891018;0.081187;-0.399372
0.00508;0.00713092;0.0715206;-0.399052
0.0051;0.0053813;0.0606566;-0.39926
0.00512;0.00340532;0.0492705;-0.399148
0.00514;0.00159838;0.0386817;-0.399292
0.00516;-0.00031236;0.0307025;-0.39918
0.00518;-0.00215885;0.018483;-0.399356
0.0052;-0.00390747;0.00949237;-0.399324
0.00522;-0.00601492;-0.0062797;-0.399372
0.00524;-0.00784262;-0.0156709;-0.399372
0.00526;-0.00954082;-0.0288737;-0.399372
0.00528;-0.0115405;-0.0372048;-0.399228
0.0053;-0.0134571;-0.046855;-0.399372
0.00532;-0.0152028;-0.0664588;-0.399196
0.00534;-0.0170701;-0.0708489;-0.399212
0.00536;-0.0190539;-0.0816361;-0.399372
0.00538;-0.0208075;-0.089073;-0.399372
0.0054;-0.0226807;-0.105683;-0.399372
0.00542;-0.0247338;-0.113666;-0.399372
0.00544;-0.0261384;-0.125853;-0.399372
0.00546;-0.0287145;-0.135483;-0.399372
0.00548;-0.0303048;-0.147901;-0.399372
0.0055;-0.0319714;-0.15779;-0.399372
0.00552;-0.0342054;-0.164429;-0.399372
0.00554;-0.0357217;-0.175362;-0.399372
0.00556;-0.0376562;-0.190111;-0.399372
0.00558;-0.0398001;-0.198988;-0.399372
0.0056;-0.0413808;-0.208153;-0.399324
0.00562;-0.0433212;-0.217779;-0.399372
0.00564;-0.0452745;-0.224807;-0.399372
0.00566;-0.0468609;-0.233365;-0.399372
0.00568;-0.0463427;-0.229792;-0.399372
0.0057;-0.0446526;-0.222565;-0.399372
0.00572;-0.0425936;-0.214424;-0.399372
0.00574;-0.0408924;-0.204503;-0.399372
0.00576;-0.0389947;-0.194246;-0.399372
0.00578;-0.0370185;-0.185668;-0.399372
0.0058;-0.0354035;-0.176155;-0.399372
0.00582;-0.0333939;-0.161124;-0.399372
0.00584;-0.0313941;-0.154662;-0.399372
0.00586;-0.0297731;-0.145942;-0.399372
0.00588;-0.0276498;-0.129875;-0.399372
0.0059;-0.0258409;-0.126096;-0.399372
0.00592;-0.0241021;-0.113747;-0.399276
0.00594;-0.0221232;-0.0974851;-0.399372
0.00596;-0.0202342;-0.0880047;-0.399372
0.00598;-0.0183837;-0.0794836;-0.399372
0.006;-0.0165126;-0.0641565;-0.399292
0.00602;-0.0147234;-0.0571526;-0.399372
0.00604;-0.0127969;-0.0431931;-0.399308
0.00606;-0.0109049;-0.0345424;-0.399356
0.00608;-0.00911676;-0.0216471;-0.399372
0.0061;-0.00719616;-0.0134415;-0.399324
0.00612;-0.00531309;-0.00286876;-0.399372
0.00614;-0.00349528;0.012179;-0.399356
0.00616;-0.00137794;0.0189969;-0.399196
0.00618;0.00045569;0.0343279;-0.399372
0.0062;0.00214007;0.0467457;-0.399372
0.00622;0.00403004;0.0527219;-0.399308
0.00624;0.00596549;0.0646299;-0.399196
0.00626;0.00779715;0.077076;-0.399292
0.00628;0.00950819;0.0913713;-0.399228
0.0063;0.011584;0.10145;-0.399356
0.00632;0.0134176;0.112731;-0.39934
0.00634;0.0154371;0.12082;-0.399372
0.00636;0.0171304;0.128382;-0.399372
0.00638;0.0189926;0.143725;-0.399372
0.0064;0.0208649;0.153545;-0.399372
0.00642;0.0227281;0.167626;-0.399372
0.00644;0.0245647;0.179481;-0.399292
0.00646;0.0265171;0.192186;-0.399356
0.00648;0.028311;0.196961;-0.399276
0.0065;0.0301624;0.203208;-0.399292
0.00652;0.0320613;0.219806;-0.399324
0.00654;0.0338653;0.227287;-0.399228
0.00656;0.0358649;0.233243;-0.399004
0.00658;0.037676;0.242242;-0.399324
0.0066;0.0395925;0.247105;-0.399356
0.00662;0.0413127;0.247854;-0.399356
0.00664;0.0433606;0.252042;-0.399372
0.00666;0.045056;0.254915;-0.399324
0.00668;0.0450233;0.253519;-0.399372
0.0067;0.04317;0.251775;-0.399164
0.00672;0.0412335;0.249679;-0.399372
0.00674;0.039231;0.244641;-0.399228
0.00676;0.0374476;0.238434;-0.399356
0.00678;0.0354855;0.236541;-0.399372
0.0068;0.033554;0.225256;-0.399372
0.00682;0.0317461;0.217325;-0.399324
0.00684;0.0298264;0.210451;-0.399244
0.00686;0.027978;0.201456;-0.399356
0.00688;0.0262758;0.187537;-0.399228
0.0069;0.0241792;0.178583;-0.39934
0.00692;0.0225057;0.16619;-0.399372
0.00694;0.020586;0.157656;-0.399372
0.00696;0.0190035;0.143236;-0.399292
0.00698;0.0168941;0.133432;-0.398747
0.007;0.015013;0.121572;-0.399164
0.00702;0.013042;0.110012;-0.399372
0.00704;0.0113388;0.0958181;-0.399067
0.00706;0.00935892;0.0867182;-0.399372
0.00708;0.00749468;0.0759957;-0.399372
0.0071;0.00572134;0.0638247;-0.399372
0.00712;0.00377699;0.056234;-0.399372
0.00714;0.00197993;0.0402718;-0.399292
0.00716;3.16314e-05;0.0335672;-0.399276
0.00718;-0.00160134;0.0183576;-0.39934
0.0072;-0.00368803;0.0112241;-0.399372
0.00722;-0.00554143;-0.00589936;-0.399372
0.00724;-0.00742054;-0.0123207;-0.399308
0.00726;-0.00923341;-0.0242084;-0.399324
0.00728;-0.011153;-0.0382972;-0.399372
0.0073;-0.0131517;-0.0493758;-0.399372
0.00732;-0.0148766;-0.062623;-0.399372
0.00734;-0.0167498;-0.0714194;-0.399372
0.00736;-0.018615;-0.0806124;-0.399372
0.00738;-0.0204477;-0.091873;-0.399372
0.0074;-0.0222981;-0.10489;-0.399372
0.00742;-0.0243344;-0.110433;-0.399372
0.00744;-0.0260988;-0.123365;-0.399372
0.00746;-0.0279305;-0.136778;-0.399324
0.00748;-0.0300043;-0.146521;-0.399372
0.0075;-0.0316313;-0.151809;-0.399372
0.00752;-0.0334225;-0.167278;-0.399372
0.00754;-0.0357236;-0.174492;-0.399372
0.00756;-0.0369881;-0.187825;-0.399372
0.00758;-0.0393732;-0.198688;-0.399372
0.0076;-0.0412078;-0.205138;-0.399372
0.00762;-0.042644;-0.220979;-0.399372
0.00764;-0.0449008;-0.217426;-0.399372
0.00766;-0.0465516;-0.235586;-0.399372
0.00768;-0.0473443;-0.230552;-0.399372
0.0077;-0.0443164;-0.218175;-0.399292
0.00772;-0.0433279;-0.222622;-0.399372
0.00774;-0.041877;-0.20638;-0.399372
0.00776;-0.0385716;-0.192441;-0.399372
0.00778;-0.0377363;-0.189237;-0.39926
0.0078;-0.0363306;-0.17607;-0.399308
0.00782;-0.0328047;-0.16882;-0.399372
0.00784;-0.0323668;-0.15516;-0.399372
0.00786;-0.0305075;-0.142616;-0.399308
0.00788;-0.0270745;-0.138886;-0.399372
0.0079;-0.0271417;-0.124825;-0.399372
0.00792;-0.0243641;-0.109102;-0.399372
0.00794;-0.0219758;-0.0991561;-0.399372
0.00796;-0.0212671;-0.0899226;-0.399372
0.00798;-0.01853;-0.0790992;-0.399004
0.008;-0.016556;-0.0691698;-0.399324
0.00802;-0.0154786;-0.0584959;-0.399372
0.00804;-0.0128522;-0.045455;-0.399324
0.00806;-0.0113735;-0.0376822;-0.399372
0.00808;-0.00969007;-0.0251147;-0.399324
0.0081;-0.00721593;-0.0175524;-0.399244
0.00812;-0.00566895;0.000400574;-0.399372
0.00814;-0.00376315;0.00918082;-0.399356
0.00816;-0.00167152;0.0198506;-0.399212
0.00818;-0.000150249;0.0313783;-0.399292
0.0082;0.0017595;0.0478949;-0.39902
0.00822;0.00386991;0.0494648;-0.399372
0.00824;0.00536944;0.063153;-0.399372
0.00826;0.00729995;0.0724431;-0.399292
0.00828;0.00915432;0.0862082;-0.399372
0.0083;0.0110087;0.095737;-0.399372
0.00832;0.013046;0.107269;-0.399372
0.00834;0.0149824;0.120549;-0.399356
0.00836;0.0166598;0.128273;-0.399372
0.00838;0.0187297;0.135297;-0.399372
0.0084;0.0204279;0.152432;-0.399372
0.00842;0.0222823;0.164923;-0.399372
0.00844;0.024113;0.174205;-0.399372
0.00846;0.0260009;0.185842;-0.399372
0.00848;0.0278424;0.195444;-0.399308
0.0085;0.0297077;0.20651;-0.399372
0.00852;0.0315987;0.216545;-0.399356
0.00854;0.033382;0.228946;-0.399372
0.00856;0.0352838;0.230795;-0.399372
0.00858;0.0372352;0.242699;-0.39934
0.0086;0.0391577;0.24545;-0.399356
0.00862;0.0409903;0.249586;-0.39926
0.00864;0.0429397;0.251787;-0.399324
0.00866;0.0448078;0.253297;-0.399372
0.00868;0.0451982;0.255125;-0.399372
0.0087;0.0433569;0.252872;-0.399372
0.00872;0.0415556;0.250901;-0.399356
0.00874;0.0394948;0.247493;-0.399372
0.00876;0.0378557;0.240567;-0.399356
0.00878;0.0359096;0.236116;-0.399164
0.0088;0.0340482;0.229076;-0.39934
0.00882;0.0321908;0.217338;-0.399372
0.00884;0.0302673;0.209144;-0.399372
0.00886;0.0284979;0.1965;-0.399372
0.00888;0.026601;0.18878;-0.399372
0.0089;0.0246972;0.180457;-0.399372
0.00892;0.0229317;0.166999;-0.398827
0.00894;0.0210852;0.154589;-0.399212
0.00896;0.0189709;0.144939;-0.399372
0.00898;0.0170888;0.133953;-0.399372
0.009;0.0154717;0.12107;-0.399164
0.00902;0.0136272;0.109931;-0.399372
0.00904;0.0115543;0.103696;-0.399356
0.00906;0.0095853;0.0895343;-0.399372
0.00908;0.00780111;0.0797343;-0.399372
0.0091;0.0060851;0.0689998;-0.399372
0.00912;0.00414965;0.0558133;-0.399372
0.00914;0.0023259;0.0430556;-0.399372
0.00916;0.000439875;0.0338667;-0.399372
0.00918;-0.00143231;0.021109;-0.399372
0.0092;-0.0032531;0.0107912;-0.399116
0.00922;-0.00502545;0.00208379;-0.399308
0.00924;-0.00697474;-0.0123449;-0.399372
0.00926;-0.00873521;-0.024172;-0.399372
0.00928;-0.0106687;-0.0327175;-0.399372
0.0093;-0.0124993;-0.0454874;-0.399372
0.00932;-0.0144822;-0.0544092;-0.399372
0.00934;-0.0163732;-0.0680206;-0.399372
0.00936;-0.0182631;-0.0780309;-0.399372
0.00938;-0.0200968;-0.0851927;-0.399372
0.0094;-0.0219669;-0.0972707;-0.399372
0.00942;-0.0238984;-0.109697;-0.399372
0.00944;-0.0257182;-0.123842;-0.399372
0.00946;-0.027541;-0.132529;-0.39934
0.00948;-0.0293994;-0.144138;-0.399372
0.0095;-0.0313378;-0.153234;-0.399372
0.00952;-0.0331942;-0.167662;-0.399372
0.00954;-0.0350931;-0.176159;-0.399372
0.00956;-0.036895;-0.184972;-0.399372
0.00958;-0.0388334;-0.192615;-0.399372
0.0096;-0.040581;-0.206138;-0.399372
0.00962;-0.0427982;-0.213235;-0.399372
0.00964;-0.0441227;-0.22176;-0.399372
0.00966;-0.046437;-0.227773;-0.399372
0.00968;-0.0471743;-0.228493;-0.399372
0.0097;-0.0451251;-0.226466;-0.399372
0.00972;-0.0436277;-0.218823;-0.399324
0.00974;-0.0415753;-0.209622;-0.39934
0.00976;-0.0396381;-0.200125;-0.399372
0.00978;-0.0381463;-0.190386;-0.399372
0.0098;-0.0358097;-0.180813;-0.399372
0.00982;-0.0339464;-0.169552;-0.39934
0.00984;-0.0323243;-0.158906;-0.399372
0.00986;-0.0302534;-0.146582;-0.399372
0.00988;-0.0285107;-0.135653;-0.399292
0.0099;-0.0267671;-0.124077;-0.399116
0.00992;-0.0246279;-0.113492;-0.399308
0.00994;-0.022993;-0.101479;-0.399372
0.00996;-0.0210091;-0.0923302;-0.399372
0.00998;-0.018876;-0.0851441;-0.399372
0.01;-0.0173557;-0.067268;-0.399372
0.01002;-0.0154816;-0.0592687;-0.399356
0.01004;-0.0134977;-0.0485099;-0.399372
0.01006;-0.0117253;-0.0405267;-0.399276
0.01008;-0.00955169;-0.0288453;-0.399372
0.0101;-0.00792763;-0.0123773;-0.39934
0.01012;-0.0061454;-0.00504561;-0.399324
0.01014;-0.00410319;0.00484735;-0.399372
0.01016;-0.00225077;0.0198587;-0.399372
0.01018;-0.000404289;0.0285661;-0.399372
0.0102;0.00158058;0.0431931;-0.399372
0.01022;0.00321158;0.0516416;-0.399372
0.01024;0.00525378;0.062271;-0.399356
0.01026;0.00719517;0.0696594;-0.39934
0.01028;0.00891116;0.0845493;-0.399308
0.0103;0.0106558;0.0938961;-0.399372
0.01032;0.0125942;0.108531;-0.399083
0.01034;0.0145801;0.116875;-0.399324
0.01036;0.0164186;0.126549;-0.399356
0.01038;0.0182829;0.140326;-0.399372
0.0104;0.0201561;0.152101;-0.399212
0.01042;0.0219897;0.164923;-0.399372
0.01044;0.0238786;0.169811;-0.399372
0.01046;0.0257963;0.186655;-0.399372
0.01048;0.0275104;0.19465;-0.399292
