t;vds;corrente;vg
0.000499;-0.00892135;-0.0123674;0.511587
0.000998;-0.00840726;-0.0118481;0.523507
0.001497;-0.00792659;-0.0113306;0.522584
0.001996;-0.00743618;-0.010544;0.522393
0.002495;-0.00693087;-0.0104571;0.522711
0.002994;-0.0064759;-0.0103412;0.523157
0.003493;-0.00593511;-0.0103246;0.519719
0.003992;-0.00543474;-0.0102791;0.522393
0.004491;-0.00503506;-0.0097244;0.521756
0.00499;-0.00446364;-0.00963744;0.521947
0.005489;-0.00395441;-0.00971611;0.521533
0.005988;-0.00344817;-0.00913656;0.521979
0.006487;-0.00301789;-0.00831684;0.523221
0.006986;-0.00247806;-0.008499;0.522902
0.007485;-0.00198658;-0.00830856;0.522711
0.007984;-0.00152967;-0.00829613;0.523603
0.008483;-0.00109741;-0.00811813;0.52338
0.008982;-0.000566467;-0.0079608;0.520801
0.009481;-9.17799e-05;-0.00719081;0.522425
0.00998;0.000278299;-0.00685547;0.522488
0.010479;0.00081812;-0.00650359;0.522329
0.010978;0.00125729;-0.00655741;0.523857
0.011477;0.00171421;-0.00658639;0.522298
0.011976;0.00220962;-0.00634629;0.524112
0.012475;0.00272775;-0.00621795;0.523889
0.012974;0.0032123;-0.00600683;0.523825
0.013473;0.00376691;-0.005597;0.524112
0.013972;0.00435607;-0.00559286;0.524112
0.014471;0.00480216;-0.00559699;0.524112
0.01497;0.0052581;-0.00503399;0.524048
0.015469;0.00580879;-0.00498432;0.524048
0.015968;0.00623312;-0.00414393;0.524048
0.016467;0.00669303;-0.00408183;0.523348
0.016966;0.00718848;-0.00414807;0.522934
0.017465;0.00762067;-0.00395764;0.524112
0.017964;0.00809242;-0.00376721;0.522138
0.018463;0.00862038;-0.00326217;0.523794
0.018962;0.00918095;-0.00226447;0.524112
0.019461;0.00969116;-0.00206576;0.524112
0.01996;0.0102122;-0.00211957;0.524112
0.020459;0.0108192;-0.0019871;0.524112
0.020958;0.0113442;-0.00182565;0.524112
0.021457;0.0117488;-0.00106807;0.524112
0.021956;0.0122599;-0.000550594;0.524112
0.022455;0.0127337;-0.000948013;0.524112
0.022954;0.0131344;-0.00041812;0.524112
0.023453;0.0135587;4.55378e-05;0.524112
0.023952;0.0140848;3.72582e-05;0.524112
0.024451;0.0145773;0.000107635;0.52338
0.02495;0.0150903;0.000840378;0.524112
0.025449;0.0156035;0.000906615;0.524112
0.025948;0.0160851;0.00137027;0.524112
0.026447;0.0165994;0.00185462;0.524112
0.026946;0.0169912;0.0019457;0.524112
0.027445;0.0174056;0.00202022;0.524112
0.027944;0.0178338;0.00216511;0.524112
0.028443;0.0183313;0.00210301;0.524112
0.028942;0.0188474;0.00249216;0.524112
0.029441;0.019255;0.0030386;0.524112
0.02994;0.0196962;0.00312969;0.524112
0.030439;0.0202656;0.00377135;0.524112
0.030938;0.020759;0.00368442;0.524112
0.031437;0.0212446;0.00407355;0.524112
0.031936;0.0217626;0.00409012;0.524112
0.032435;0.0223114;0.00413151;0.524112
0.032934;0.0226953;0.00430952;0.524112
0.033433;0.0231768;0.00460346;0.524112
0.033932;0.0237049;0.00510437;0.524112
0.034431;0.0242159;0.00539;0.524112
0.03493;0.0246018;0.00554733;0.524112
0.035429;0.025128;0.00592818;0.524112
0.035928;0.0256065;0.00619312;0.524112
0.036427;0.0260162;0.00621795;0.524112
0.036926;0.0264651;0.00623451;0.52408
0.037425;0.0270318;0.00639596;0.524112
0.037924;0.0275073;0.00637526;0.524112
0.038423;0.0280253;0.00668574;0.524112
0.038922;0.0285662;0.00737709;0.524112
0.039421;0.0289876;0.00745575;0.524112
0.03992;0.0295197;0.0080022;0.524112
0.040419;0.0300021;0.00812227;0.524112
0.040918;0.0304333;0.00813468;0.524112
0.041417;0.0309073;0.00826302;0.524112
0.041916;0.031437;0.00832926;0.524112
0.042415;0.0319632;0.0084162;0.524112
0.042914;0.0324535;0.00853212;0.524112
0.043413;0.0328728;0.00911995;0.524112
0.043912;0.033481;0.0101094;0.524112
0.044411;0.0339604;0.0101425;0.524112
0.04491;0.034378;0.0101425;0.524112
0.045409;0.0349187;0.00996033;0.524112
0.045908;0.0354239;0.0103453;0.524048
0.046407;0.0358751;0.0105109;0.524112
0.046906;0.0364336;0.0111857;0.524112
0.047405;0.0369232;0.0110863;0.523157
0.047904;0.0374117;0.0118646;0.524112
0.048403;0.0378746;0.0122331;0.524112
0.048902;0.0383808;0.0122579;0.52408
0.049401;0.0388614;0.0122413;0.524112
0.0499;0.0392354;0.012556;0.524048
0.050399;0.0397889;0.0124442;0.524112
0.050898;0.0403537;0.0127547;0.524112
0.051397;0.0407382;0.0128416;0.524112
0.051896;0.0412475;0.0135495;0.52373
0.052395;0.0418162;0.0143734;0.524112
0.052894;0.0422386;0.0145224;0.524112
0.053393;0.0427506;0.0150647;0.524112
0.053892;0.0432717;0.0149612;0.524112
0.054391;0.0437533;0.0157271;0.524112
0.05489;0.0441163;0.0153504;0.524016
0.055389;0.0446296;0.0159837;0.523794
0.055888;0.0451776;0.0165136;0.524112
0.056387;0.0455615;0.0165467;0.524112
0.056886;0.0460397;0.0163066;0.524112
0.057385;0.0466222;0.016377;0.524112
0.057884;0.0471079;0.0165219;0.524112
0.058383;0.0474776;0.0166668;0.523984
0.058882;0.0479791;0.0166627;0.523921
0.059381;0.048282;0.0166461;0.524112
0.05988;0.0478616;0.0168448;0.52408
0.060379;0.047322;0.0169483;0.524112
0.060878;0.0469262;0.016526;0.523953
0.061377;0.0464413;0.0163646;0.524112
0.061876;0.0459247;0.0162114;0.524112
0.062375;0.0455328;0.0158057;0.524112
0.062874;0.0450263;0.0151103;0.524112
0.063373;0.0446019;0.0145472;0.524112
0.063872;0.0441383;0.0146135;0.523889
0.064371;0.0436753;0.0143941;0.524112
0.06487;0.0431512;0.0144603;0.523762
0.065369;0.0426423;0.0141457;0.524112
0.065868;0.042198;0.0136737;0.523666
0.066367;0.0417105;0.0137855;0.524112
0.066866;0.0411892;0.0130486;0.524016
0.067365;0.0407159;0.0128747;0.524112
0.067864;0.0402075;0.0126802;0.524112
0.068363;0.0396646;0.0123945;0.523603
0.068862;0.039275;0.0124525;0.524112
0.069361;0.0388317;0.0123821;0.524112
0.06986;0.0383127;0.0119515;0.524112
0.070359;0.0378806;0.0116038;0.524016
0.070858;0.0374452;0.0116494;0.524112
0.071357;0.036943;0.0116576;0.524112
0.071856;0.0364256;0.0108255;0.524112
0.072355;0.0359807;0.0106972;0.524112
0.072854;0.0354427;0.0101839;0.524112
0.073353;0.0349178;0.0103205;0.524112
0.073852;0.034387;0.010188;0.524112
0.074351;0.0338578;0.00979475;0.524112
0.07485;0.0333496;0.00915308;0.524112
0.075349;0.0329045;0.00896266;0.524112
0.075848;0.0324763;0.00922347;0.524112
0.076347;0.0320115;0.00838307;0.524112
0.076846;0.031506;0.00861492;0.524112
0.077345;0.0310217;0.00826302;0.524112
0.077844;0.0304778;0.00821748;0.524112
0.078343;0.0299401;0.00824232;0.524112
0.078842;0.0295177;0.00802291;0.524112
0.079341;0.0289708;0.00751784;0.524112
0.07984;0.0285366;0.00771656;0.524112
0.080339;0.0280096;0.00727359;0.523571
0.080838;0.0275597;0.00681821;0.524112
0.081337;0.027012;0.00641252;0.524112
0.081836;0.0264967;0.0065243;0.524112
0.082335;0.0260546;0.00619726;0.52408
0.082834;0.0256125;0.00611446;0.524112
0.083333;0.025044;0.00579573;0.524112
0.083832;0.0246176;0.0058371;0.524112
0.084331;0.0241361;0.00543555;0.524112
0.08483;0.0236782;0.004649;0.524112
0.085329;0.0231777;0.00418947;0.524112
0.085828;0.022726;0.00433851;0.524112
0.086327;0.0222551;0.00424743;0.524112
0.086826;0.0217558;0.0043592;0.524112
0.087325;0.0212594;0.00434679;0.524112
0.087824;0.0206711;0.00406113;0.524112
0.088323;0.0201285;0.00413151;0.524112
0.088822;0.0196991;0.00411081;0.524112
0.089321;0.0192837;0.0039535;0.524112
0.08982;0.0188978;0.00329114;0.524112
0.090319;0.0183441;0.00317523;0.524112
0.090818;0.0179138;0.00241765;0.524112
0.091317;0.0174204;0.00210301;0.524112
0.091816;0.016928;0.00191672;0.524112
0.092315;0.0164987;0.00157726;0.524112
0.092814;0.0160249;0.00112602;0.524048
0.093313;0.015491;0.00110118;0.524112
0.093812;0.0150046;0.000264947;0.524112
0.094311;0.0145694;0.000157312;0.524112
0.09481;0.0140808;2.48388e-05;0.524112
0.095309;0.0135656;-0.000281506;0.524112
0.095808;0.0131452;-0.000360163;0.524112
0.096307;0.012708;-0.000898335;0.524112
0.096806;0.0121465;-0.000910755;0.524112
0.097305;0.011735;-0.00154;0.524112
0.097804;0.0112248;-0.00184635;0.524112
0.098303;0.0106583;-0.00201608;0.524112
0.098802;0.0102102;-0.00195812;0.524112
0.099301;0.00971194;-0.00206576;0.524112
0.0998;0.00916809;-0.00231829;0.524112
0.100299;0.0086214;-0.0030593;0.524112
0.100798;0.0081605;-0.00327458;0.524112
0.101297;0.00771939;-0.00340292;0.524112
0.101796;0.00714403;-0.00368028;0.524112
0.102295;0.00672952;-0.00402387;0.524112
0.102794;0.00631013;-0.00408597;0.524048
0.103293;0.00588971;-0.00420189;0.524112
0.103792;0.00527781;-0.00421845;0.524112
0.104291;0.00485151;-0.00456206;0.524112
0.10479;0.00422876;-0.00451239;0.524112
0.105289;0.00369685;-0.00572118;0.524112
0.105788;0.00329718;-0.0059075;0.524112
0.106287;0.00273266;-0.0060565;0.524112
0.106786;0.00209119;-0.00619726;0.524112
0.107285;0.00165204;-0.00615586;0.524112
0.107784;0.00132538;-0.00619726;0.524112
0.108283;0.000797396;-0.00628419;0.524112
0.108782;0.000417449;-0.00620967;0.524112
0.109281;-3.35539e-05;-0.00674784;0.524112
0.10978;-0.000577322;-0.00740193;0.524112
0.110279;-0.00108359;-0.00793596;0.524112
0.110778;-0.00159874;-0.00767517;0.524112
0.111277;-0.00205172;-0.00803119;0.524112
0.111776;-0.00259748;-0.00826302;0.524112
0.112275;-0.00300012;-0.00825888;0.524112
0.112774;-0.00346494;-0.0082713;0.524112
0.113273;-0.00399487;-0.00844518;0.524112
0.113772;-0.00453964;-0.00865218;0.524112
0.114271;-0.00495414;-0.00883432;0.524112
0.11477;-0.00551667;-0.00898333;0.524112
0.115269;-0.00602292;-0.00987753;0.524112
0.115768;-0.00645123;-0.0103288;0.524112
0.116267;-0.00695655;-0.0103081;0.524112
0.116766;-0.00754863;-0.0104571;0.524112
0.117265;-0.00805294;-0.0108214;0.524112
0.117764;-0.0085148;-0.0114093;0.523666
0.118263;-0.00900231;-0.0117901;0.524112
0.118762;-0.00954409;-0.0123283;0.524112
0.119261;-0.0100139;-0.0123945;0.524112
0.11976;-0.0105971;-0.0125725;0.523857
0.120259;-0.0110432;-0.0128044;0.523921
0.120758;-0.0114982;-0.0125021;0.524112
0.121257;-0.0120349;-0.0133964;0.523953
0.121756;-0.0125373;-0.0142823;0.524112
0.122255;-0.0129933;-0.0144603;0.524112
0.122754;-0.0134186;-0.0147294;0.524112
0.123253;-0.0139901;-0.0148039;0.523984
0.123752;-0.0144914;-0.0149736;0.524112
0.124251;-0.0149265;-0.0152924;0.522934
0.12475;-0.0154407;-0.0158595;0.523889
0.125249;-0.0160082;-0.0160789;0.523857
0.125748;-0.0163812;-0.0164929;0.521979
0.126247;-0.0168451;-0.016526;0.523984
0.126746;-0.0172991;-0.016526;0.52408
0.127245;-0.0177736;-0.0166378;0.523794
0.127744;-0.0181339;-0.0165302;0.524016
0.128243;-0.0186678;-0.0166337;0.524112
0.128742;-0.0191712;-0.0175279;0.524112
0.129241;-0.0195254;-0.0181406;0.524112
0.12974;-0.0200703;-0.018509;0.523348
0.130239;-0.0206938;-0.0185214;0.523507
0.130738;-0.02114;-0.0187284;0.524112
0.131237;-0.0215761;-0.0186663;0.524112
0.131736;-0.0221367;-0.0185918;0.523921
0.132235;-0.0225858;-0.0186291;0.523825
0.132734;-0.0230564;-0.0191258;0.524112
0.133233;-0.023548;-0.0191797;0.524112
0.133732;-0.0240354;-0.0195895;0.524112
0.134231;-0.024431;-0.0202767;0.524112
0.13473;-0.0248369;-0.020612;0.524112
0.135229;-0.0254388;-0.0211502;0.523698
0.135728;-0.0257912;-0.0209763;0.524112
0.136227;-0.0262746;-0.0215725;0.524112
0.136726;-0.0267969;-0.0222638;0.524048
0.137225;-0.0273574;-0.0226903;0.524112
0.137724;-0.0278201;-0.0226903;0.523762
0.138223;-0.0283206;-0.0227234;0.524112
0.138722;-0.0289313;-0.0227276;0.524112
0.139221;-0.0293628;-0.0228766;0.524112
0.13972;-0.0298028;-0.0228435;0.524112
0.140219;-0.0302408;-0.0231042;0.524112
0.140718;-0.0307009;-0.0232698;0.524112
0.141217;-0.0311203;-0.0234561;0.524112
0.141716;-0.0316987;-0.0244661;0.524112
0.142215;-0.0322581;-0.0248263;0.524112
0.142714;-0.032708;-0.0248428;0.523507
0.143213;-0.0332125;-0.0248428;0.521661
0.143712;-0.0337877;-0.0248304;0.523507
0.144211;-0.0342754;-0.0249091;0.523539
0.14471;-0.0346405;-0.0249008;0.52408
0.145209;-0.0352335;-0.026118;0.524112
0.145708;-0.0355581;-0.0260353;0.523698
0.146207;-0.0360054;-0.0265652;0.524112
0.146706;-0.0365916;-0.0267101;0.524112
0.147205;-0.037164;-0.0269005;0.524112
0.147704;-0.0374857;-0.0269751;0.524112
0.148203;-0.0380394;-0.0270868;0.523825
0.148702;-0.0385319;-0.0271158;0.524112
0.149201;-0.0389452;-0.0276043;0.523953
0.1497;-0.0394081;-0.0270081;0.524112
0.150199;-0.0399578;-0.0276498;0.523825
0.150698;-0.040471;-0.0278609;0.524048
0.151197;-0.0408764;-0.028635;0.522552
0.151696;-0.0414459;-0.0289206;0.523984
0.152195;-0.042065;-0.0289744;0.52287
0.152694;-0.0425098;-0.0289537;0.524112
0.153193;-0.0429461;-0.0292891;0.523921
0.153692;-0.043482;-0.0296037;0.521629
0.154191;-0.0440117;-0.0293678;0.522648
0.15469;-0.0445033;-0.0304359;0.521438
0.155189;-0.0450246;-0.0305891;0.52338
0.155688;-0.0454243;-0.0309824;0.523571
0.156187;-0.0458741;-0.0309575;0.520833
0.156686;-0.046402;-0.0310072;0.523571
0.157185;-0.0469273;-0.0310569;0.523825
0.157684;-0.0473722;-0.0309865;0.522807
0.158183;-0.0478626;-0.0310651;0.523953
0.158682;-0.0484628;-0.0319386;0.523252
0.159181;-0.0487778;-0.0323235;0.523857
0.15968;-0.0486326;-0.0317979;0.524112
0.160179;-0.0482307;-0.0316446;0.523953
0.160678;-0.0477886;-0.0311438;0.524112
0.161177;-0.0471561;-0.0309865;0.524112
0.161676;-0.0467555;-0.0309865;0.523698
0.162175;-0.0462717;-0.0309741;0.523889
0.162674;-0.0457904;-0.0308416;0.52408
0.163173;-0.0453266;-0.0308043;0.523666
0.163672;-0.0449;-0.0307381;0.524016
0.164171;-0.044371;-0.0295872;0.524112
0.16467;-0.0438293;-0.0292145;0.523921
0.165169;-0.0434138;-0.0291524;0.523061
0.165668;-0.0428849;-0.0289289;0.524112
0.166167;-0.0423066;-0.0289413;0.523984
0.166666;-0.0417776;-0.0288668;0.523666
0.167165;-0.0413115;-0.0287054;0.522202
0.167664;-0.040836;-0.0281879;0.522552
0.168163;-0.0402371;-0.0282707;0.523412
0.168662;-0.0398244;-0.027745;0.523857
0.169161;-0.0393717;-0.0272317;0.523412
0.16966;-0.0388682;-0.0269171;0.523539
0.170159;-0.0384301;-0.0269875;0.523348
0.170658;-0.0379812;-0.0267763;0.524112
0.171157;-0.0374502;-0.0267391;0.524112
0.171656;-0.0369597;-0.0266562;0.524016
0.172155;-0.0365174;-0.0260435;0.523857
0.172654;-0.0359994;-0.0258033;0.522711
0.173153;-0.0354545;-0.0252444;0.52373
0.173652;-0.0350233;-0.0252155;0.523316
0.174151;-0.0346139;-0.0250085;0.523889
0.17465;-0.0340729;-0.0250954;0.523984
0.175149;-0.0335925;-0.0248511;0.524016
0.175648;-0.033157;-0.0246483;0.524112
0.176147;-0.032646;-0.0247725;0.524112
0.176646;-0.032131;-0.0247352;0.524112
0.177145;-0.031655;-0.0241681;0.523762
0.177644;-0.0310444;-0.0235596;0.524112
0.178143;-0.0305567;-0.0233195;0.524016
0.178642;-0.0301778;-0.0229884;0.524112
0.179141;-0.0296766;-0.0228021;0.523825
0.17964;-0.0291819;-0.0227234;0.52408
0.180139;-0.0286531;-0.0226034;0.523794
0.180638;-0.0282325;-0.0223177;0.524112
0.181137;-0.0276978;-0.0224294;0.524112
0.181636;-0.0271295;-0.0213778;0.523953
0.182135;-0.0266309;-0.0214193;0.524112
0.182634;-0.026257;-0.0207362;0.52408
0.183133;-0.0257891;-0.020939;0.523794
0.183632;-0.0252711;-0.0204298;0.524112
0.184131;-0.0248456;-0.0204754;0.524112
0.18463;-0.0242713;-0.0198627;0.524112
0.185129;-0.0237405;-0.0197841;0.524112
0.185628;-0.0233248;-0.0192293;0.524016
0.186127;-0.0228661;-0.0192004;0.523762
0.186626;-0.0223488;-0.0188195;0.523125
0.187125;-0.0218742;-0.0185753;0.523794
0.187624;-0.0213492;-0.0184304;0.524112
0.188123;-0.0209484;-0.0183517;0.523984
0.188622;-0.0205271;-0.0180992;0.522998
0.189121;-0.0200376;-0.0180702;0.523475
0.18962;-0.0195156;-0.0178591;0.522298
0.190119;-0.0190607;-0.0174037;0.523953
0.190618;-0.0186234;-0.017205;0.524112
0.191117;-0.0180618;-0.0168158;0.523348
0.191616;-0.0175783;-0.016526;0.523762
0.192115;-0.0171599;-0.0165095;0.524112
0.192614;-0.0167474;-0.0164888;0.523984
0.193113;-0.0161917;-0.0156939;0.524016
0.193612;-0.0157535;-0.0155283;0.523762
0.194111;-0.0153469;-0.0150191;0.524112
0.19461;-0.0148349;-0.0148287;0.523475
0.195109;-0.0143118;-0.0144893;0.523284
0.195608;-0.0139121;-0.0144727;0.523762
0.196107;-0.0134304;-0.0141415;0.523794
0.196606;-0.0129301;-0.0141788;0.523061
0.197105;-0.0123833;-0.0138021;0.524112
0.197604;-0.0119462;-0.0137731;0.523475
0.198103;-0.0113847;-0.0136903;0.523603
0.198602;-0.0108271;-0.0129575;0.52408
0.199101;-0.0103839;-0.0124897;0.524112
0.1996;-0.00981161;-0.0125063;0.523316
0.200099;-0.00931714;-0.0124607;0.524112
0.200598;-0.00890162;-0.0121378;0.523221
0.201097;-0.00842107;-0.0122786;0.521502
0.201596;-0.00794633;-0.011877;0.523857
0.202095;-0.00746579;-0.0115583;0.524112
0.202594;-0.00706409;-0.0115045;0.52217
0.203093;-0.00647491;-0.0111484;0.523443
0.203592;-0.00593018;-0.010929;0.522648
0.204091;-0.00538638;-0.0103246;0.522743
0.20459;-0.00487026;-0.0103288;0.523348
0.205089;-0.00432153;-0.0102087;0.523252
0.205588;-0.0039327;-0.0103122;0.521088
0.206087;-0.00333962;-0.00985269;0.523603
0.206586;-0.00291031;-0.00974506;0.524048
0.207085;-0.0024899;-0.00940147;0.523984
0.207584;-0.0020379;-0.00992721;0.522807
0.208083;-0.00151487;-0.00863976;0.523666
0.208582;-0.00104806;-0.0083955;0.523603
0.209081;-0.000559559;-0.00821748;0.524112
0.20958;-9.37537e-05;-0.00830028;0.523061
0.210079;0.000474687;-0.00810156;0.523443
0.210578;0.000902991;-0.00789871;0.523953
0.211077;0.00134315;-0.00752613;0.524112
0.211576;0.00183066;-0.00714111;0.524112
0.212075;0.0022264;-0.00635456;0.524112
0.212574;0.00274946;-0.00619726;0.524112
0.213073;0.00336823;-0.00615586;0.524112
0.213572;0.00388533;-0.00619726;0.524112
0.214071;0.00434126;-0.00580813;0.524112
0.21457;0.00488407;-0.00513749;0.524112
0.215069;0.00532323;-0.00567567;0.524112
0.215568;0.00577425;-0.00478148;0.524112
0.216067;0.00621042;-0.00416877;0.524112
0.216566;0.00673941;-0.00411909;0.524112
0.217065;0.00729802;-0.00392038;0.523443
0.217564;0.00774402;-0.00376307;0.523412
0.218063;0.0082839;-0.00346088;0.523794
0.218562;0.00880195;-0.00346501;0.524112
0.219061;0.00924313;-0.002902;0.52408
0.21956;0.00976123;-0.00262049;0.52408
0.220059;0.0102596;-0.00243835;0.523475
0.220558;0.0107451;-0.00225619;0.523825
0.221057;0.011139;-0.00244663;0.524112
0.221556;0.0117034;-0.00230173;0.523984
0.222055;0.0122027;-0.0019457;0.523857
0.222554;0.0127051;-0.00143651;0.523507
0.223053;0.0132044;-0.00150688;0.522998
0.223552;0.013768;-0.000662368;0.523412
0.224051;0.0141282;-0.000637529;0.523634
0.22455;0.0146237;-9.93552e-05;0.524112
0.225049;0.0151604;-6.2097e-05;0.523603
0.225548;0.0155956;-8.27961e-06;0.523666
0.226047;0.0160763;0.000285646;0.524112
0.226546;0.0165767;0.000579572;0.524112
0.227045;0.0169823;0.000488497;0.522807
0.227544;0.0174056;0.00132059;0.523316
0.228043;0.0179414;0.00168075;0.524112
0.228542;0.0183757;0.00144893;0.523412
0.229041;0.0188099;0.00205748;0.524112
0.22954;0.0193655;0.00218995;0.524048
0.230039;0.0198384;0.00216925;0.524112
0.230538;0.0202459;0.0019457;0.524112
0.231037;0.0207867;0.00208232;0.524112
0.231536;0.0213521;0.00210301;0.524112
0.232035;0.02181;0.0024549;0.523953
0.232534;0.0222285;0.00294339;0.524112
0.233033;0.0227437;0.00319592;0.524112
0.233532;0.0231738;0.00377549;0.524112
0.234031;0.023627;0.00395764;0.524112
0.23453;0.0241015;0.00413151;0.523825
0.235029;0.0246749;0.00430539;0.523921
0.235528;0.025127;0.00461589;0.524112
0.236027;0.0256224;0.00457863;0.524112
0.236526;0.0261533;0.00481045;0.524112
0.237025;0.0266329;0.0048767;0.523634
0.237524;0.0271009;0.00567567;0.523889
0.238023;0.0275754;0.00590334;0.524112
0.238522;0.0280816;0.00598613;0.523634
0.239021;0.0284982;0.00627177;0.524112
0.23952;0.0289451;0.00684306;0.524112
0.240019;0.0295197;0.00662365;0.524048
0.240518;0.029939;0.00659467;0.524112
0.241017;0.0304057;0.00748059;0.524112
0.241516;0.031003;0.00797322;0.524048
0.242015;0.0315722;0.00815539;0.524016
0.242514;0.0319543;0.0082092;0.52408
0.243013;0.0324969;0.00826302;0.524048
0.243512;0.0330466;0.00826302;0.524112
0.244011;0.0334198;0.00830856;0.524112
0.24451;0.0338776;0.00886745;0.524112
0.245009;0.0344422;0.00932696;0.523411
0.245508;0.0349118;0.00958361;0.522361
0.246007;0.0353509;0.0101963;0.521725
0.246506;0.0359343;0.0102708;0.523284
0.247005;0.0363694;0.0103536;0.522457
0.247504;0.0368769;0.0106517;0.524112
0.248003;0.0373732;0.0110035;0.523857
0.248502;0.0379082;0.0115748;0.523794
0.249001;0.0383818;0.0111774;0.520101
0.2495;0.0388673;0.0117446;0.522202
0.249999;0.0394407;0.0120012;0.521947
0.250498;0.0398205;0.0122786;0.521533
0.250997;0.0402896;0.0123945;0.522011
0.251496;0.040833;0.0124069;0.522075
0.251995;0.0413057;0.0125808;0.522616
0.252494;0.0417215;0.0125311;0.522647
