t;vds;corrente;vg
0.000499;0.0178259;0.00229954;-0.191082
0.000998;0.0183382;0.00301791;-0.190714
0.001497;0.0186984;0.00339463;-0.190842
0.001996;0.0191603;0.00335324;-0.190587
0.002495;0.0196399;0.00359748;-0.190587
0.002994;0.0201176;0.00368855;-0.19116
0.003493;0.0205487;0.00384173;-0.190746
0.003992;0.021137;0.00424329;-0.191542
0.004491;0.0215702;0.00429711;-0.190587
0.00499;0.0220212;0.00461174;-0.191033
0.005489;0.0225306;0.00444613;-0.190587
0.005988;0.0230514;0.00451652;-0.190587
0.006487;0.0235016;0.00530722;-0.190587
0.006986;0.0239446;0.00519131;-0.191064
0.007485;0.0244488;0.00597371;-0.191032
0.007984;0.0248813;0.00608549;-0.191191
0.008483;0.0253401;0.00619726;-0.190587
0.008982;0.0259323;0.00619726;-0.190905
0.009481;0.0263871;0.00619726;-0.190746
0.00998;0.0268166;0.00638355;-0.190587
0.010479;0.0273149;0.00660295;-0.190778
0.010978;0.0278852;0.00720737;-0.190651
0.011477;0.0281863;0.00726532;-0.190587
0.011976;0.0287191;0.00770829;-0.190587
0.012475;0.0293243;0.0078449;-0.190587
0.012974;0.0298334;0.0082092;-0.191001
0.013473;0.0303099;0.00818022;-0.190587
0.013972;0.0308086;0.0082506;-0.190746
0.014471;0.0313511;0.00821748;-0.19081
0.01497;0.0318201;0.00862734;-0.190587
0.015469;0.0323894;0.00932694;-0.190587
0.015968;0.0329301;0.00934768;-0.190587
0.016467;0.0333181;0.00973678;-0.190619
0.016966;0.0336763;0.0099272;-0.190587
0.017465;0.0342714;0.0103577;-0.190587
0.017964;0.0347826;0.0103495;-0.190587
0.018463;0.0352739;0.0104737;-0.190587
0.018962;0.0357536;0.0109166;-0.190587
0.019461;0.0362747;0.0109249;-0.190842
0.01996;0.0367851;0.0119805;-0.190587
0.020459;0.0372262;0.0120012;-0.191033
0.020958;0.0377334;0.0123324;-0.191032
0.021457;0.0380769;0.0121834;-0.192719
0.021956;0.0386305;0.0123614;-0.191383
0.022455;0.0392156;0.0125642;-0.192973
0.022954;0.0396262;0.0123945;-0.19081
0.023453;0.0400378;0.0126967;-0.192019
0.023952;0.0406129;0.0128913;-0.190841
0.024451;0.0411251;0.0138269;-0.190937
0.02495;0.0415417;0.0138476;-0.192178
0.025449;0.042066;0.0144479;-0.190682
0.025948;0.0426183;0.0143775;-0.191001
0.026447;0.0431336;0.0144272;-0.190587
0.026946;0.0435294;0.0145224;-0.190587
0.027445;0.0440156;0.0145017;-0.190587
0.027944;0.0444776;0.0145265;-0.191128
0.028443;0.0450206;0.0150274;-0.190587
0.028942;0.0454619;0.015727;-0.190587
0.029441;0.0458289;0.0164598;-0.190587
0.02994;0.0462321;0.0162611;-0.19081
0.030439;0.0468326;0.0165136;-0.191128
0.030938;0.0473287;0.0167123;-0.190587
0.031437;0.0477629;0.0166792;-0.191478
0.031936;0.0482564;0.0173458;-0.190841
0.032435;0.0480214;0.0171512;-0.190619
0.032934;0.0475263;0.0165633;-0.190587
0.033433;0.0469943;0.016526;-0.190746
0.033932;0.0464917;0.0164805;-0.190587
0.034431;0.0460174;0.0160914;-0.190587
0.03493;0.0455575;0.0156774;-0.190587
0.035429;0.0450707;0.0150192;-0.190587
0.035928;0.044587;0.0147045;-0.190587
0.036427;0.0441295;0.0145348;-0.191351
0.036926;0.0436131;0.0144355;-0.191255
0.037425;0.0432282;0.0144272;-0.190587
0.037924;0.0427291;0.0142988;-0.190937
0.038423;0.042275;0.0142823;-0.190714
0.038922;0.0418616;0.0138517;-0.191192
0.039421;0.0413549;0.0133301;-0.190587
0.03992;0.0407483;0.0131935;-0.191064
0.040419;0.0403596;0.0125394;-0.190905
0.040918;0.039857;0.0123241;-0.190587
0.041417;0.0393618;0.0124028;-0.191033
0.041916;0.0388446;0.0123573;-0.190746
0.042415;0.0384064;0.0118812;-0.190714
0.042914;0.0379151;0.0113927;-0.191096
0.043413;0.0373436;0.010602;-0.190587
0.043912;0.0369005;0.010337;-0.190619
0.044411;0.0364819;0.0103784;-0.190587
0.04491;0.0359205;0.0102956;-0.191096
0.045409;0.0354565;0.0103329;-0.190587
0.045908;0.0350184;0.00987755;-0.191224
0.046407;0.0344531;0.00982786;-0.190905
0.046906;0.0338756;0.00983203;-0.191033
0.047405;0.0334523;0.00890057;-0.192624
0.047904;0.0329439;0.00878466;-0.192083
0.048403;0.032425;0.00848658;-0.190969
0.048902;0.0319641;0.00826716;-0.190587
0.049401;0.0314705;0.00830856;-0.191096
0.0499;0.0308903;0.00835824;-0.190587
0.050399;0.0304432;0.00823404;-0.190841
0.050898;0.0300121;0.00738124;-0.191287
0.051397;0.02949;0.00760064;-0.192147
0.051896;0.0289688;0.00745989;-0.190587
0.052395;0.0285475;0.00748058;-0.191255
0.052894;0.0280836;0.00671058;-0.190587
0.053393;0.0275903;0.00634629;-0.190682
0.053892;0.0271008;0.00619726;-0.190587
0.054391;0.026549;0.00605651;-0.190587
0.05489;0.0260714;0.00583297;-0.190619
0.055389;0.0255888;0.00572119;-0.190587
0.055888;0.025125;0.00582055;-0.190587
0.056387;0.024591;0.00578744;-0.190587
0.056886;0.0240986;0.00545626;-0.190587
0.057385;0.0237178;0.00536104;-0.190587
0.057884;0.0232784;0.00508783;-0.190587
0.058383;0.0227447;0.00492222;-0.190682
0.058882;0.0222708;0.00424329;-0.190587
0.059381;0.0218091;0.00428469;-0.190587
0.05988;0.0212693;0.00412323;-0.19116
0.060379;0.0207333;0.00417705;-0.190905
0.060878;0.0202706;0.00412737;-0.190587
0.061377;0.0197554;0.00387899;-0.190714
0.061876;0.0192393;0.00353125;-0.190587
0.062375;0.0188119;0.00329528;-0.19081
0.062874;0.0183085;0.00285233;-0.190651
0.063373;0.0177963;0.00209887;-0.190587
0.063872;0.0175132;0.00209474;-0.190778
0.064371;0.017001;0.00203264;-0.190587
0.06487;0.0165342;0.00194984;-0.190587
0.065369;0.0160595;0.00166006;-0.191033
0.065868;0.0156015;0.00146963;-0.190587
0.066367;0.0149987;0.000571293;-0.190587
0.066866;0.0145822;4.55378e-05;-0.190587
0.067365;0.0141381;0;-0.190587
0.067864;0.013611;0;-0.190587
0.068363;0.0130652;-0.000190431;-0.190587
0.068862;0.0126231;-0.000509196;-0.190619
0.069361;0.0121949;-0.000720325;-0.190587
0.06986;0.0116797;-0.001155;-0.190682
0.070359;0.0112791;-0.00148204;-0.190587
0.070858;0.0108468;-0.00175941;-0.190587
0.071357;0.0102526;-0.001925;-0.190587
0.071856;0.00975929;-0.00206576;-0.190587
0.072355;0.00926384;-0.00220237;-0.190587
0.072854;0.00876248;-0.00221893;-0.190587
0.073353;0.0082138;-0.00242179;-0.190587
0.073852;0.00777069;-0.00246732;-0.190746
0.074351;0.0072605;-0.00252941;-0.190587
0.07485;0.00675617;-0.00231829;-0.190587
0.075349;0.006245;-0.00323731;-0.190587
0.075848;0.00580977;-0.00394936;-0.190587
0.076347;0.00531335;-0.00411495;-0.190619
0.076846;0.00483967;-0.00411909;-0.190587
0.077345;0.00439259;-0.00418533;-0.190587
0.077844;0.00380244;-0.00430953;-0.190587
0.078343;0.00325968;-0.00553077;-0.190587
0.078842;0.00282247;-0.00453721;-0.190714
0.079341;0.00228562;-0.00573361;-0.190587
0.07984;0.00175961;-0.00584952;-0.190587
0.080339;0.00135893;-0.00615586;-0.190587
0.080838;0.000926677;-0.00614758;-0.190587
0.081337;0.000339486;-0.00637941;-0.190587
0.081836;-0.000155927;-0.00648703;-0.190587
0.082335;-0.000561532;-0.00655329;-0.190587
0.082834;-0.00104609;-0.00643322;-0.190587
0.083333;-0.0015119;-0.00707075;-0.190587
0.083832;-0.00195599;-0.00815952;-0.190587
0.084331;-0.00238925;-0.00846588;-0.190587
0.08483;-0.00292019;-0.0085818;-0.190587
0.085329;-0.00345014;-0.00886332;-0.190587
0.085828;-0.00385079;-0.00843275;-0.190587
0.086327;-0.00447253;-0.00915307;-0.190587
0.086826;-0.00495612;-0.00994376;-0.190587
0.087325;-0.00542489;-0.0103826;-0.190587
0.087824;-0.0059509;-0.0104074;-0.190969
0.088323;-0.00645715;-0.0103288;-0.190587
0.088822;-0.00698221;-0.0103081;-0.190587
0.089321;-0.00741643;-0.0103743;-0.190587
0.08982;-0.0079039;-0.0106931;-0.190587
0.090319;-0.00843783;-0.0109249;-0.190587
0.090818;-0.00883649;-0.0110739;-0.190587
0.091317;-0.00942368;-0.011194;-0.190619
0.091816;-0.00990531;-0.0120012;-0.190587
0.092315;-0.0103494;-0.01232;-0.190587
0.092814;-0.0108577;-0.0122952;-0.190587
0.093313;-0.011358;-0.0122786;-0.190587
0.093812;-0.0118643;-0.0123697;-0.190587
0.094311;-0.0124277;-0.0131521;-0.190587
0.09481;-0.0129873;-0.0139552;-0.190587
0.095309;-0.0134561;-0.0142574;-0.190587
0.095808;-0.0139239;-0.0142036;-0.190651
0.096307;-0.0143878;-0.0141912;-0.190587
0.096806;-0.0148102;-0.0141829;-0.190587
0.097305;-0.0152176;-0.0145182;-0.190587
0.097804;-0.0157239;-0.0145182;-0.190587
0.098303;-0.0162559;-0.0149033;-0.190587
0.098802;-0.0167356;-0.015309;-0.190587
0.099301;-0.0172034;-0.0157312;-0.190587
0.0998;-0.0177065;-0.0163149;-0.190587
0.100299;-0.0181783;-0.0164639;-0.190587
0.100798;-0.0185514;-0.0163563;-0.190587
0.101297;-0.0191159;-0.0167248;-0.190587
0.101796;-0.0194771;-0.0166792;-0.190587
0.102295;-0.0199114;-0.0167579;-0.190587
0.102794;-0.0205191;-0.0170642;-0.190587
0.103293;-0.0209268;-0.0179626;-0.190587
0.103792;-0.0213995;-0.0177638;-0.190682
0.104291;-0.0218978;-0.0183724;-0.190587
0.10479;-0.0224565;-0.0183434;-0.190587
0.105289;-0.0229182;-0.018538;-0.190587
0.105788;-0.0233555;-0.0185877;-0.190587
0.106287;-0.0238716;-0.018658;-0.190587
0.106786;-0.0243521;-0.0187119;-0.190587
0.107285;-0.0248171;-0.0191051;-0.190587
0.107784;-0.0252681;-0.0189685;-0.190587
0.108283;-0.0258642;-0.0199455;-0.190587
0.108782;-0.0262174;-0.0201773;-0.190587
0.109281;-0.0267524;-0.0205043;-0.190555
0.10978;-0.0271719;-0.0205789;-0.190587
0.110279;-0.027679;-0.0211378;-0.190587
0.110778;-0.0281389;-0.0211792;-0.190523
0.111277;-0.0287941;-0.0224336;-0.190587
0.111776;-0.0292433;-0.0225206;-0.190587
0.112275;-0.0296509;-0.0224667;-0.190587
0.112774;-0.0301856;-0.0223922;-0.190587
0.113273;-0.0306535;-0.0226862;-0.190587
0.113772;-0.0311124;-0.0227234;-0.190587
0.114271;-0.031669;-0.0229014;-0.190587
0.11477;-0.0321506;-0.0233112;-0.190587
0.115269;-0.0326765;-0.0234934;-0.190714
0.115768;-0.033091;-0.0238245;-0.190587
0.116267;-0.0336142;-0.0246565;-0.190587
0.116766;-0.0340591;-0.0247435;-0.190587
0.117265;-0.0345261;-0.0248594;-0.190587
0.117764;-0.0350411;-0.0248428;-0.190587
0.118263;-0.0355108;-0.0247849;-0.190587
0.118762;-0.0359875;-0.0247559;-0.190587
0.119261;-0.0365274;-0.02476;-0.190587
0.11976;-0.0370407;-0.0252155;-0.190587
0.120259;-0.0374876;-0.0255343;-0.190587
0.120758;-0.0379289;-0.025882;-0.190587
0.121257;-0.0384943;-0.026677;-0.190587
0.121756;-0.0388949;-0.0268757;-0.190587
0.122255;-0.0392926;-0.0268923;-0.190587
0.122754;-0.0398413;-0.0274635;-0.190587
0.123253;-0.040332;-0.0271986;-0.190587
0.123752;-0.0407777;-0.0281506;-0.190587
0.124251;-0.0413689;-0.0287095;-0.190587
0.12475;-0.0419367;-0.0288047;-0.190587
0.125249;-0.0423747;-0.0288419;-0.190587
0.125748;-0.0428523;-0.0289744;-0.190587
0.126247;-0.0434603;-0.0289537;-0.190587
0.126746;-0.0439171;-0.0289951;-0.190587
0.127245;-0.044371;-0.0296659;-0.190619
0.127744;-0.0449485;-0.0297445;-0.190587
0.128243;-0.045373;-0.0294506;-0.190587
0.128742;-0.0457737;-0.0303861;-0.190587
0.129241;-0.0462469;-0.0306926;-0.190587
0.12974;-0.0467772;-0.0307133;-0.190841
0.130239;-0.0472243;-0.0309823;-0.190842
0.130738;-0.0476721;-0.0309865;-0.190873
0.131237;-0.048292;-0.0311686;-0.190905
0.131736;-0.048821;-0.0312845;-0.190587
0.132235;-0.048842;-0.0312017;-0.190587
0.132734;-0.0483482;-0.0309865;-0.190587
0.133233;-0.0479001;-0.0309865;-0.190587
0.133732;-0.0472628;-0.0309409;-0.190587
0.134231;-0.0467623;-0.0309865;-0.191064
0.13473;-0.0463318;-0.030792;-0.191383
0.135229;-0.0458576;-0.0309161;-0.190714
0.135728;-0.0453325;-0.0301254;-0.190587
0.136227;-0.0449276;-0.0302785;-0.190587
0.136726;-0.0444125;-0.0297734;-0.190587
0.137225;-0.0439389;-0.0292725;-0.190587
0.137724;-0.0435046;-0.029111;-0.190587
0.138223;-0.0430378;-0.0288709;-0.190587
0.138722;-0.0425021;-0.0287095;-0.190587
0.139221;-0.0419316;-0.0285398;-0.190587
0.13972;-0.0414705;-0.0279478;-0.190587
0.140219;-0.0409425;-0.0276622;-0.190778
0.140718;-0.040414;-0.0276126;-0.190587
0.141217;-0.0400189;-0.0269378;-0.190587
0.141716;-0.0394535;-0.0268964;-0.190587
0.142215;-0.0389739;-0.0267722;-0.190587
0.142714;-0.0385594;-0.026619;-0.190587
0.143213;-0.0380828;-0.0268343;-0.190619
0.143712;-0.0375518;-0.025969;-0.190587
0.144211;-0.0371226;-0.0259897;-0.190587
0.14471;-0.0366378;-0.0251658;-0.190682
0.145209;-0.0360527;-0.0251326;-0.190587
0.145708;-0.0355671;-0.024698;-0.190619
0.146207;-0.0351605;-0.0247269;-0.190587
0.146706;-0.0347066;-0.0246235;-0.190587
0.147205;-0.0341242;-0.0239156;-0.190587
0.147704;-0.0336615;-0.0234147;-0.190587
0.148203;-0.0331116;-0.0233071;-0.190587
0.148702;-0.0326006;-0.0232119;-0.190587
0.149201;-0.0320925;-0.0229884;-0.190587
0.1497;-0.03158;-0.0226779;-0.190587
0.150199;-0.0311589;-0.0225909;-0.190587
0.150698;-0.0306366;-0.0225495;-0.190587
0.151197;-0.0301956;-0.0222225;-0.190587
0.151696;-0.0297902;-0.0215683;-0.190587
0.152195;-0.029176;-0.0208479;-0.190587
0.152694;-0.0288189;-0.0208728;-0.190587
0.153193;-0.0282523;-0.0209308;-0.190587
0.153692;-0.0277324;-0.0207031;-0.190587
0.154191;-0.0272736;-0.0207238;-0.190587
0.15469;-0.0267868;-0.0206037;-0.190587
0.155189;-0.0262432;-0.0205457;-0.190587
0.155688;-0.0257022;-0.0201484;-0.190587
0.156187;-0.0253412;-0.0195688;-0.190587
0.156686;-0.0249088;-0.0197302;-0.190587
0.157185;-0.024365;-0.0198213;-0.190587
0.157684;-0.0239369;-0.0187864;-0.190587
0.158183;-0.0234531;-0.0185877;-0.190587
0.158682;-0.0229331;-0.01848;-0.190587
0.159181;-0.022489;-0.0184221;-0.190587
0.15968;-0.0220084;-0.0184883;-0.190746
0.160179;-0.021515;-0.0183393;-0.190587
0.160678;-0.0209701;-0.0173706;-0.190587
0.161177;-0.02054;-0.0171222;-0.190587
0.161676;-0.0200554;-0.0166751;-0.190587
0.162175;-0.019483;-0.0165343;-0.190587
0.162674;-0.0191495;-0.0165964;-0.190682
0.163173;-0.0187103;-0.0164391;-0.190587
0.163672;-0.0181901;-0.0163811;-0.190682
0.164171;-0.0177154;-0.0160044;-0.190587
0.16467;-0.0172576;-0.0156318;-0.190587
0.165169;-0.0168609;-0.0156525;-0.190587
0.165668;-0.0162914;-0.0147501;-0.190587
0.166167;-0.015864;-0.0145307;-0.190587
0.166666;-0.0153114;-0.0143237;-0.190587
0.167165;-0.0147707;-0.0144768;-0.190587
0.167664;-0.0143996;-0.0142947;-0.190619
0.168163;-0.0139279;-0.014067;-0.190587
0.168662;-0.0133673;-0.0137648;-0.190587
0.169161;-0.0129449;-0.0133136;-0.190842
0.16966;-0.0125442;-0.0129575;-0.190587
0.170159;-0.0119581;-0.0124318;-0.190619
0.170658;-0.0114429;-0.0123821;-0.190587
0.171157;-0.0110146;-0.0121254;-0.190587
0.171656;-0.0105003;-0.011964;-0.190587
0.172155;-0.00991716;-0.0119888;-0.190587
0.172654;-0.00947802;-0.0114962;-0.190587
0.173153;-0.0090309;-0.0114879;-0.190587
0.173652;-0.00844081;-0.0111981;-0.190587
0.174151;-0.00796508;-0.0109125;-0.190587
0.17465;-0.00753487;-0.0107676;-0.190587
0.175149;-0.006996;-0.0103453;-0.190587
0.175648;-0.00648873;-0.0100762;-0.190682
0.176147;-0.00598347;-0.0100473;-0.190905
0.176646;-0.00549988;-0.0100845;-0.190651
0.177145;-0.00498375;-0.0089254;-0.190587
0.177644;-0.00449621;-0.00917381;-0.190587
0.178143;-0.0040679;-0.00869772;-0.190587
0.178642;-0.00351527;-0.0081057;-0.190587
0.179141;-0.00301295;-0.00838308;-0.190587
0.17964;-0.00260733;-0.0081885;-0.190587
0.180139;-0.00215139;-0.00790284;-0.190587
0.180638;-0.00149513;-0.00710387;-0.190587
0.181137;-0.0010757;-0.00639182;-0.190587
0.181636;-0.000613837;-0.00621381;-0.190587
0.182135;-3.15802e-05;-0.00611033;-0.190587
0.182634;0.000356262;-0.00620967;-0.190587
0.183133;0.000811212;-0.00619726;-0.190587
0.183632;0.0013244;-0.00563014;-0.190651
0.184131;0.00165006;-0.00600269;-0.191001
0.18463;0.00215831;-0.00548938;-0.190587
0.185129;0.00271294;-0.00529065;-0.190587
0.185628;0.00317677;-0.00559699;-0.190587
0.186127;0.00368698;-0.0051458;-0.190587
0.186626;0.00431166;-0.00436749;-0.190587
0.187125;0.00481006;-0.00418947;-0.190587
0.187624;0.00531929;-0.00413151;-0.190587
0.188123;0.00578313;-0.00411909;-0.190587
0.188622;0.00629628;-0.00387899;-0.190587
0.189121;0.00679567;-0.00353124;-0.190587
0.18962;0.00718749;-0.00319593;-0.190587
0.190119;0.00772922;-0.00267431;-0.190619
0.190618;0.00818717;-0.0025377;-0.190587
0.191117;0.00865097;-0.00185462;-0.190587
0.191616;0.0091987;-0.00206576;-0.190587
0.192115;0.00975531;-0.00206576;-0.190714
0.192614;0.0102507;-0.00193742;-0.190587
0.193113;0.0106514;-0.00178839;-0.190682
0.193612;0.0112307;-0.00110118;-0.190651
0.194111;0.0117163;-0.00126678;-0.190873
0.19461;0.0121869;-0.000567153;-0.190842
0.195109;0.0126646;-0.000500916;-0.190587
0.195608;0.0131215;4.1398e-06;-0.190587
0.196107;0.0135025;-7.86562e-05;-0.190587
0.196606;0.0140108;-2.89786e-05;-0.190587
0.197105;0.0145467;0.000712045;-0.190587
0.197604;0.0149137;0.000575432;-0.190587
0.198103;0.015491;0.00168075;-0.190587
0.198602;0.0160151;0.00168489;-0.190587
0.199101;0.0164592;0.00207404;-0.190587
0.1996;0.0169083;0.00240936;-0.190587
0.200099;0.0174352;0.00222307;-0.190587
0.200598;0.0179394;0.00246318;-0.190587
0.201097;0.0182997;0.00341534;-0.190682
0.201596;0.0188514;0.00384586;-0.190587
0.202095;0.019257;0.0039949;-0.190682
0.202594;0.0196478;0.00392038;-0.191192
0.203093;0.0200989;0.00416049;-0.190587
0.203592;0.0207136;0.00413151;-0.190587
0.204091;0.0211301;0.00416877;-0.190587
0.20459;0.0216363;0.00424742;-0.190714
0.205089;0.0221475;0.00435506;-0.190587
0.205588;0.0226963;0.00432195;-0.190587
0.206087;0.0230781;0.00444613;-0.190587
0.206586;0.023619;0.00468212;-0.190587
0.207085;0.0241548;0.00543554;-0.190587
0.207584;0.024516;0.00569635;-0.190587
0.208083;0.0250185;0.00564253;-0.190587
0.208582;0.025499;0.00602339;-0.190619
0.209081;0.0259619;0.00615586;-0.190587
0.20958;0.0263684;0.00620139;-0.190587
0.210079;0.0269874;0.00633801;-0.190587
0.210578;0.0275222;0.00649946;-0.190587
0.211077;0.0279335;0.00701693;-0.190587
0.211576;0.0284123;0.00684306;-0.190587
0.212075;0.0289885;0.00793597;-0.190587
0.212574;0.0294023;0.0079484;-0.190587
0.213073;0.0299449;0.00826302;-0.190587
0.213572;0.0304984;0.00830856;-0.190587
0.214071;0.0309832;0.00842861;-0.190587
0.21457;0.0314192;0.00854454;-0.190682
0.215069;0.0320135;0.00910339;-0.190587
0.215568;0.0324594;0.00874325;-0.190587
0.216067;0.0329123;0.00991892;-0.190587
0.216566;0.0333122;0.00984856;-0.190587
0.217065;0.0338795;0.0103826;-0.190587
0.217564;0.0343909;0.0103536;-0.190746
0.218063;0.0348625;0.0104861;-0.190587
0.218562;0.0354703;0.0108173;-0.190587
0.219061;0.0358731;0.0108504;-0.190587
0.21956;0.0363556;0.0111691;-0.190587
0.220059;0.0369144;0.0108421;-0.190587
0.220558;0.0374017;0.0118563;-0.190587
0.221057;0.0378568;0.0121503;-0.190587
0.221556;0.0382861;0.012084;-0.190587
0.222055;0.0388387;0.0122538;-0.190587
0.222554;0.0392946;0.0123117;-0.19081
0.223053;0.0397278;0.0124069;-0.191064
0.223552;0.0402106;0.0125684;-0.190587
0.224051;0.0407145;0.012705;-0.190587
0.22455;0.0411241;0.0129203;-0.190587
0.225049;0.041677;0.0136613;-0.190905
0.225548;0.0421971;0.0139138;-0.190587
0.226047;0.0426163;0.0138766;-0.190587
0.226546;0.0431829;0.0144644;-0.190682
0.227045;0.0436921;0.0144727;-0.190587
0.227544;0.0440936;0.0145472;-0.190651
0.228043;0.0445418;0.0147004;-0.190587
0.228542;0.0450097;0.0154373;-0.190619
0.229041;0.0454935;0.0163191;-0.190587
0.22954;0.0459274;0.0162197;-0.190714
0.230039;0.0464829;0.0166213;-0.190587
0.230538;0.0469273;0.0168945;-0.190587
0.231037;0.0474422;0.0173085;-0.190587
0.231536;0.047915;0.0179915;-0.190587
0.232035;0.0482652;0.0178011;-0.190714
0.232534;0.047901;0.0181861;-0.190778
0.233033;0.0473981;0.0177349;-0.190587
0.233532;0.0469854;0.0173251;-0.190587
0.234031;0.0464621;0.0170974;-0.190587
0.23453;0.0459513;0.0168697;-0.190587
0.235029;0.0454529;0.0165592;-0.190937
0.235528;0.0449385;0.015963;-0.190905
0.236027;0.044439;0.0158512;-0.190619
0.236526;0.0440406;0.0150854;-0.190651
0.237025;0.0436082;0.0144603;-0.190842
0.237524;0.0430861;0.0148618;-0.190587
0.238023;0.0425761;0.01463;-0.190587
0.238522;0.042196;0.0142947;-0.190587
0.239021;0.041664;0.014481;-0.190587
0.23952;0.0411083;0.0137979;-0.190587
0.240019;0.0406922;0.0134129;-0.190587
0.240518;0.0401235;0.0133756;-0.190682
0.241017;0.0395975;0.0128499;-0.190587
0.241516;0.0392385;0.0123904;-0.190651
0.242015;0.0387419;0.0123945;-0.190587
0.242514;0.0382022;0.0125187;-0.190587
0.243013;0.0377276;0.0122124;-0.190587
0.243512;0.0373041;0.012349;-0.190587
0.244011;0.0368333;0.011757;-0.190587
0.24451;0.0363575;0.0116949;-0.190587
0.245009;0.0359176;0.0115748;-0.190587
0.245508;0.0353844;0.0111691;-0.190587
0.246007;0.0347994;0.010544;-0.190587
0.246506;0.0344037;0.0102998;-0.190587
0.247005;0.0339466;0.0101756;-0.190587
0.247504;0.0332607;0.00914892;-0.190587
0.248003;0.0328226;0.00931872;-0.190587
