t;vds;corrente;vg
0.000499;-0.0394071;-0.0279058;0.277976
0.000998;-0.0397514;-0.0275049;0.286238
0.001497;-0.0402984;-0.0283163;0.284895
0.001996;-0.0408655;-0.0286639;0.284048
0.002495;-0.0413096;-0.0281009;0.285519
0.002994;-0.0417758;-0.0287177;0.284975
0.003493;-0.0423341;-0.0285605;0.285919
0.003992;-0.0429036;-0.0287881;0.285295
0.004491;-0.0432924;-0.0289206;0.285199
0.00499;-0.0437681;-0.0292228;0.285839
0.005489;-0.0443424;-0.0295456;0.286062
0.005988;-0.044828;-0.0296906;0.285503
0.006487;-0.0452723;-0.0307298;0.285231
0.006986;-0.0457756;-0.0309865;0.284688
0.007485;-0.046239;-0.0308995;0.284863
0.007984;-0.0466943;-0.0309948;0.286654
0.008483;-0.0471572;-0.0309741;0.286558
0.008982;-0.0476938;-0.0309948;0.286302
0.009481;-0.0480827;-0.0309865;0.286462
0.00998;-0.0486268;-0.0311148;0.285886
0.010479;-0.0488933;-0.0316281;0.285247
0.010978;-0.0483956;-0.0313963;0.286366
0.011477;-0.0479247;-0.0315619;0.28683
0.011976;-0.0473605;-0.031566;0.286398
0.012475;-0.0468571;-0.0310444;0.286702
0.012974;-0.0463812;-0.0310693;0.286014
0.013473;-0.0459424;-0.0309782;0.28627
0.013972;-0.0454865;-0.0309741;0.286398
0.014471;-0.0450174;-0.0307671;0.28587
0.01497;-0.0445969;-0.0303157;0.286126
0.015469;-0.0441146;-0.0292228;0.286846
0.015968;-0.0436536;-0.0291442;0.286446
0.016467;-0.0431118;-0.0288419;0.286542
0.016966;-0.0426186;-0.0289206;0.286398
0.017465;-0.0420925;-0.0288295;0.286782
0.017964;-0.0415564;-0.0288254;0.285551
0.018463;-0.0410925;-0.0288047;0.28611
0.018962;-0.0405265;-0.0283783;0.285998
0.019461;-0.0400278;-0.0280431;0.28651
0.01996;-0.0396212;-0.0273062;0.285774
0.020459;-0.0391348;-0.0270537;0.286862
0.020958;-0.038667;-0.0269171;0.286766
0.021457;-0.0381558;-0.0268964;0.287006
0.021956;-0.0376693;-0.026677;0.285806
0.022455;-0.0371719;-0.0262464;0.286238
0.022954;-0.036625;-0.0249215;0.286622
0.023453;-0.036174;-0.0253148;0.286126
0.023952;-0.0356835;-0.0254308;0.286158
0.024451;-0.035123;-0.0250457;0.286846
0.02495;-0.0347165;-0.0250829;0.286814
0.025449;-0.0343059;-0.0249588;0.286606
0.025948;-0.0336882;-0.0246234;0.286622
0.026447;-0.0332765;-0.0242095;0.286414
0.026946;-0.0327535;-0.0237997;0.287006
0.027445;-0.0322129;-0.023572;0.286942
0.027944;-0.0316916;-0.0227855;0.28699
0.028443;-0.0312812;-0.0227151;0.287006
0.028942;-0.0307965;-0.0227234;0.287006
0.029441;-0.030314;-0.0227234;0.286974
0.02994;-0.0299193;-0.0227069;0.286238
0.030439;-0.0293745;-0.0226737;0.286798
0.030938;-0.0287794;-0.0225661;0.28691
0.031437;-0.0283006;-0.0223633;0.28627
0.031936;-0.0278459;-0.021912;0.286366
0.032435;-0.027317;-0.0218581;0.284895
0.032934;-0.0268224;-0.0214441;0.285423
0.033433;-0.0263764;-0.0209307;0.286286
0.033932;-0.0259322;-0.0206534;0.285599
0.034431;-0.025427;-0.0205499;0.286174
0.03493;-0.0249848;-0.0200242;0.284975
0.035429;-0.0245278;-0.0193908;0.284559
0.035928;-0.0239457;-0.0186829;0.28448
0.036427;-0.0235094;-0.0186291;0.285903
0.036926;-0.0230535;-0.0185918;0.285599
0.037425;-0.0225423;-0.0187284;0.285631
0.037924;-0.0220074;-0.0185918;0.286014
0.038423;-0.0216028;-0.0184759;0.286318
0.038922;-0.0211429;-0.0181406;0.28595
0.039421;-0.0206356;-0.0176397;0.285487
0.03992;-0.0201492;-0.0171222;0.285087
0.040419;-0.0197011;-0.0166461;0.285072
0.040918;-0.0192077;-0.0165592;0.285167
0.041417;-0.0187132;-0.0164846;0.285375
0.041916;-0.0183164;-0.0161576;0.286446
0.042415;-0.0178467;-0.0161741;0.285775
0.042914;-0.017301;-0.0161162;0.286718
0.043413;-0.0168767;-0.0155532;0.285903
0.043912;-0.0164128;-0.015193;0.285631
0.044411;-0.0158966;-0.01463;0.285966
0.04491;-0.0153775;-0.0146259;0.286238
0.045409;-0.0149099;-0.014303;0.286686
0.045908;-0.0144785;-0.0144437;0.285871
0.046407;-0.0140038;-0.0141332;0.285919
0.046906;-0.0135844;-0.0134377;0.286126
0.047405;-0.0130337;-0.0132349;0.286126
0.047904;-0.0125116;-0.0131148;0.28635
0.048403;-0.0121179;-0.0128292;0.286286
0.048902;-0.0115682;-0.0125187;0.28675
0.049401;-0.0109869;-0.0123945;0.286174
0.0499;-0.0104421;-0.0122786;0.285439
0.050399;-0.0100326;-0.0121792;0.285839
0.050898;-0.00945729;-0.0119764;0.283617
0.051397;-0.00896379;-0.0118481;0.285759
0.051896;-0.00852667;-0.0121668;0.284592
0.052395;-0.00806081;-0.0112519;0.283521
0.052894;-0.00754474;-0.0105564;0.285647
0.053393;-0.00715094;-0.0108214;0.285135
0.053892;-0.00668018;-0.010544;0.283856
0.054391;-0.00606834;-0.0102956;0.285439
0.05489;-0.00556896;-0.00986512;0.285168
0.055389;-0.00509229;-0.0100762;0.285407
0.055888;-0.00461958;-0.00973681;0.283697
0.056387;-0.00406198;-0.00969956;0.285503
0.056886;-0.00358633;-0.00888402;0.286143
0.057385;-0.00305835;-0.00826716;0.286734
0.057884;-0.00264088;-0.00831684;0.285854
0.058383;-0.00212475;-0.0081057;0.286047
0.058882;-0.00162145;-0.00727774;0.286814
0.059381;-0.0011734;-0.0077207;0.285726
0.05988;-0.000681932;-0.00683065;0.28651
0.060379;-0.000210205;-0.00637941;0.286798
0.060878;0.000341459;-0.00621795;0.28651
0.061377;0.000776671;-0.00623865;0.28675
0.061876;0.00116452;-0.00616414;0.28643
0.062375;0.0016392;-0.00615172;0.285327
0.062874;0.0021435;-0.00612688;0.285008
0.063373;0.00262708;-0.00613102;0.285567
0.063872;0.00313335;-0.00619726;0.285407
0.064371;0.00368796;-0.00587851;0.284128
0.06487;0.00420705;-0.00550592;0.285551
0.065369;0.00469655;-0.00472766;0.286047
0.065868;0.00525514;-0.00433851;0.286126
0.066367;0.00570023;-0.00418119;0.28603
0.066866;0.00616502;-0.00413151;0.285567
0.067365;0.00666836;-0.00394522;0.286334
0.067864;0.00715492;-0.00400731;0.285391
0.068363;0.00761376;-0.00358921;0.28595
0.068862;0.00810624;-0.00321662;0.285263
0.069361;0.00868846;-0.00306346;0.284944
0.06986;0.0091553;-0.00233899;0.285231
0.070359;0.00963193;-0.00229759;0.285135
0.070858;0.0101421;-0.00257082;0.283265
0.071357;0.0105941;-0.00215269;0.283169
0.071856;0.0110156;-0.00211543;0.282258
0.072355;0.0115179;-0.00170559;0.284481
0.072854;0.0120764;-0.00184221;0.285279
0.073353;0.0124652;-0.00134543;0.284991
0.073852;0.0129074;-0.000836239;0.284751
0.074351;0.0134679;-0.000956292;0.281379
0.07485;0.0139081;-0.000463658;0.284321
0.075349;0.01437;-0.000111775;0.283649
0.075848;0.014893;3.72582e-05;0.284976
0.076347;0.0154229;9.93552e-05;0.284304
0.076846;0.0158946;0.000654088;0.285087
0.077345;0.0163733;0.00103909;0.282802
0.077844;0.0168737;0.00130403;0.28408
0.078343;0.0172714;0.0014986;0.284192
0.078842;0.0177262;0.0014779;0.283825
0.079341;0.018206;0.00198296;0.283616
0.07984;0.0186284;0.00210301;0.283713
0.080339;0.0190754;0.00202436;0.28221
0.080838;0.019554;0.00233485;0.28229
0.081337;0.0199854;0.00262463;0.284096
0.081836;0.0204777;0.00353538;0.283377
0.082335;0.020993;0.00355608;0.284048
0.082834;0.021661;0.00411909;0.285535
0.083333;0.0220942;0.00409839;0.284048
0.083832;0.0225177;0.00399904;0.28488
0.084331;0.023004;0.00382516;0.284017
0.08483;0.0235105;0.00417705;0.283697
0.085329;0.0238795;0.00457034;0.284991
0.085828;0.0243491;0.00466969;0.28416
0.086327;0.0248892;0.00484771;0.284928
0.086826;0.0252888;0.00536105;0.285631
0.087325;0.0258248;0.00606479;0.285472
0.087824;0.026322;0.00618898;0.285167
0.088323;0.0267564;0.00619312;0.285871
0.088822;0.0273189;0.00619726;0.28432
0.089321;0.0278803;0.00625935;0.285183
0.08982;0.0283018;0.00632145;0.285727
0.090319;0.0287497;0.00632973;0.286494
0.090818;0.0292404;0.00670232;0.285839
0.091317;0.0297466;0.00700451;0.285231
0.091816;0.0302132;0.00794011;0.284863
0.092315;0.0307493;0.00813469;0.284752
0.092814;0.0313116;0.00824646;0.284592
0.093313;0.0318073;0.00828786;0.283489
0.093812;0.0322177;0.00847002;0.284656
0.094311;0.0327376;0.00856523;0.283953
0.09481;0.0332421;0.00884674;0.283505
0.095309;0.0336881;0.00945115;0.284752
0.095808;0.0342596;0.00988996;0.285743
0.096307;0.0347855;0.00957118;0.282195
0.096806;0.035264;0.0104861;0.284544
0.097305;0.0357319;0.0102791;0.282482
0.097804;0.0362539;0.0103039;0.283153
0.098303;0.0367643;0.0104447;0.283281
0.098802;0.0371749;0.0108628;0.282849
0.099301;0.0376495;0.0104281;0.283905
0.0998;0.038146;0.0106641;0.283505
0.100299;0.0385753;0.0109166;0.283121
0.100798;0.039104;0.0117818;0.284624
0.101297;0.0395986;0.0123117;0.285311
0.101796;0.0400457;0.0123986;0.285759
0.102295;0.0405883;0.012378;0.284336
0.102794;0.0411202;0.0124856;0.28464
0.103293;0.0415822;0.0123945;0.283889
0.103792;0.0420887;0.0129534;0.283697
0.104291;0.0425146;0.0131645;0.28317
0.10479;0.0430083;0.0132846;0.283105
0.105289;0.0434662;0.0143734;0.283713
0.105788;0.0439732;0.0143361;0.284624
0.106287;0.0444708;0.0144189;0.285839
0.106786;0.0448961;0.0148329;0.285919
0.107285;0.0453977;0.0154083;0.285951
0.107784;0.0458544;0.0158347;0.285966
0.108283;0.0463071;0.0161162;0.284367
0.108782;0.0467802;0.0162363;0.283425
0.109281;0.0473652;0.016584;0.284768
0.10978;0.0478369;0.0166834;0.285918
0.110279;0.0482396;0.017561;0.285408
0.110778;0.0479484;0.0170021;0.284783
0.111277;0.0475243;0.0168117;0.285551
0.111776;0.0469815;0.0166668;0.284687
0.112275;0.0464769;0.0161659;0.285183
0.112774;0.0460943;0.0162983;0.285599
0.113273;0.0455605;0.0158512;0.28408
0.113772;0.0450796;0.0161079;0.286558
0.114271;0.0446275;0.0155904;0.284719
0.11477;0.0441393;0.0158554;0.285855
0.115269;0.043623;0.0148743;0.284879
0.115768;0.0432796;0.0147418;0.285838
0.116267;0.042808;0.0145017;0.28659
0.116766;0.0422385;0.0144355;0.285839
0.117265;0.0417856;0.0143609;0.28659
0.117764;0.0413076;0.014038;0.285279
0.118263;0.0407858;0.0137689;0.285423
0.118762;0.0401917;0.0135164;0.285375
0.119261;0.0398067;0.0126139;0.285072
0.11976;0.0393273;0.0126719;0.28587
0.120259;0.0388653;0.0123697;0.285007
0.120758;0.0383413;0.0119888;0.286047
0.121257;0.0378874;0.0118646;0.285791
0.121756;0.0374166;0.0119971;0.284944
0.122255;0.0369676;0.011285;0.285359
0.122754;0.0365578;0.0112478;0.285279
0.123253;0.03603;0.0109415;0.285615
0.123752;0.0354141;0.0104571;0.286494
0.124251;0.0349848;0.0103412;0.286254
0.12475;0.0344669;0.0103205;0.285823
0.125249;0.0338558;0.010217;0.286542
0.125748;0.0334217;0.00973267;0.286558
0.126247;0.0330001;0.00934767;0.286862
0.126746;0.0325256;0.0092235;0.286638
0.127245;0.0319661;0.00852384;0.28667
0.127744;0.0315317;0.00830028;0.286526
0.128243;0.030989;0.00826302;0.286766
0.128742;0.0304373;0.00822576;0.285918
0.129241;0.0299825;0.00809742;0.28611
0.12974;0.0294821;0.00750956;0.286015
0.130239;0.0289935;0.00686376;0.286094
0.130738;0.0285218;0.00694655;0.284161
0.131237;0.0280145;0.00673542;0.284464
0.131736;0.0274078;0.00623037;0.284768
0.132235;0.0270021;0.00636284;0.285375
0.132734;0.0265352;0.00630075;0.285759
0.133233;0.0259954;0.00619726;0.285184
0.133732;0.025503;0.00586609;0.285503
0.134231;0.0250362;0.00553078;0.285024
0.13473;0.0246048;0.00524514;0.285647
0.135229;0.0241252;0.00457862;0.285935
0.135728;0.0237;0.00440475;0.28627
0.136227;0.0232251;0.00438819;0.285375
0.136726;0.0227161;0.00382517;0.285679
0.137225;0.0222008;0.0038707;0.285503
0.137724;0.0217291;0.00359335;0.286254
0.138223;0.0212693;0.00286889;0.285727
0.138722;0.0207007;0.00225619;0.286127
0.139221;0.0202321;0.00209888;0.286494
0.13972;0.0196784;0.0020078;0.286366
0.140219;0.0191949;0.00182565;0.285647
0.140718;0.0187685;0.00206576;0.285119
0.141217;0.0183559;0.00208645;0.286159
0.141716;0.0178279;0.00203678;0.285839
0.142215;0.0173968;0.0020492;0.285279
0.142714;0.0169783;0.00213199;0.285279
0.143213;0.0165253;0.00187118;0.286015
0.143712;0.0160624;0.00118398;0.285599
0.144211;0.0156045;0.000157312;0.285679
0.14471;0.0151319;9.10756e-05;0.286558
0.145209;0.0146582;-6.62368e-05;0.285199
0.145708;0.0141104;-0.000293926;0.285151
0.146207;0.0136505;-8.2796e-05;0.285311
0.146706;0.0131136;-0.0011136;0.283409
0.147205;0.0126675;-0.00111774;0.285135
0.147704;0.0122136;-0.00186704;0.284608
0.148203;0.0117814;-0.00209473;0.284928
0.148702;0.01121;-0.00212371;0.284832
0.149201;0.0108655;-0.0020492;0.285695
0.1497;0.0103355;-0.00214441;0.285312
0.150199;0.00974351;-0.00211543;0.286174
0.150698;0.00923324;-0.00291855;0.285502
0.151197;0.00874276;-0.00264533;0.286286
0.151696;0.00824539;-0.00351469;0.286974
0.152195;0.00771741;-0.00413151;0.284368
0.152694;0.00725556;-0.0039535;0.285807
0.153193;0.00677888;-0.00406527;0.284768
0.153692;0.00624302;-0.00413151;0.284832
0.154191;0.00586109;-0.00430539;0.285871
0.15469;0.0053015;-0.00466142;0.285359
0.155189;0.0048683;-0.00416049;0.285295
0.155688;0.00435212;-0.00426398;0.285855
0.156187;0.00390014;-0.00519958;0.285982
0.156686;0.003311;-0.00539;0.285471
0.157185;0.00278003;-0.00577914;0.285471
0.157684;0.00234582;-0.00572119;0.286382
0.158183;0.00184448;-0.00617242;0.285807
0.158682;0.00127702;-0.00620554;0.28464
0.159181;0.000903978;-0.00643322;0.286958
0.15968;0.000436199;-0.00678097;0.28627
0.160179;-9.27668e-05;-0.00786973;0.28667
0.160678;-0.000534887;-0.0081885;0.285935
0.161177;-0.00105793;-0.00826302;0.285136
0.161676;-0.00152276;-0.00826302;0.286079
0.162175;-0.00199941;-0.00850313;0.285583
0.162674;-0.00243957;-0.0087267;0.285215
0.163173;-0.00292413;-0.0087474;0.285039
0.163672;-0.00348073;-0.00927727;0.285998
0.164171;-0.00394553;-0.0098858;0.284815
0.16467;-0.00442515;-0.00952564;0.286878
0.165169;-0.00505086;-0.0102625;0.286494
0.165668;-0.0054989;-0.010453;0.286111
0.166167;-0.00601601;-0.0106724;0.286079
0.166666;-0.00653019;-0.0106848;0.286254
0.167165;-0.0069595;-0.0105068;0.285104
0.167664;-0.00744504;-0.0106517;0.285678
0.168163;-0.00791476;-0.0109539;0.285199
0.168662;-0.0084171;-0.0115666;0.285231
0.169161;-0.00892828;-0.0115624;0.285647
0.16966;-0.00935956;-0.0121751;0.28635
0.170159;-0.00988657;-0.0119309;0.285727
0.170658;-0.0104106;-0.0121544;0.28619
0.171157;-0.0109169;-0.0123862;0.286382
0.171656;-0.0114242;-0.01244;0.285136
0.172155;-0.0119521;-0.0129865;0.286654
0.172654;-0.0123823;-0.0137358;0.285055
0.173153;-0.0129459;-0.0143816;0.284864
0.173652;-0.0134719;-0.0141788;0.286702
0.174151;-0.0138687;-0.0142367;0.286078
0.17465;-0.0143177;-0.0143568;0.28603
0.175149;-0.014824;-0.01451;0.285999
0.175648;-0.0152966;-0.014717;0.286398
0.176147;-0.0157486;-0.0146507;0.28667
0.176646;-0.0162342;-0.0149529;0.286526
0.177145;-0.0167277;-0.0148784;0.287006
0.177644;-0.0171569;-0.0157602;0.286718
0.178143;-0.0176572;-0.0163356;0.286846
0.178642;-0.0181299;-0.0163894;0.286542
0.179141;-0.0186323;-0.0164722;0.286798
0.17964;-0.0190794;-0.016526;0.286478
0.180139;-0.019479;-0.0164432;0.286206
0.180638;-0.0200348;-0.016704;0.286255
0.181137;-0.0204175;-0.0171098;0.28627
0.181636;-0.0209594;-0.0180743;0.286127
0.182135;-0.021435;-0.0183641;0.285727
0.182634;-0.0218988;-0.0185421;0.285247
0.183133;-0.0224092;-0.0186705;0.285375
0.183632;-0.0228965;-0.0185546;0.285695
0.184131;-0.0234513;-0.0186084;0.28635
0.18463;-0.0238637;-0.0190472;0.286494
0.185129;-0.0243511;-0.0195895;0.285983
0.185628;-0.0248428;-0.0201442;0.286078
0.186127;-0.0253105;-0.0205623;0.285215
0.186626;-0.0257863;-0.0207362;0.285663
0.187125;-0.0262273;-0.0209887;0.285087
0.187624;-0.0267001;-0.0208811;0.283921
0.188123;-0.0272172;-0.0212454;0.282226
0.188622;-0.0276977;-0.0213323;0.284416
0.189121;-0.0281468;-0.0216843;0.285631
0.18962;-0.028727;-0.0224046;0.284656
0.190119;-0.0291673;-0.0226489;0.284624
0.190618;-0.0297081;-0.0227234;0.284065
0.191117;-0.0301235;-0.0229801;0.284864
0.191616;-0.0306347;-0.0228227;0.285183
0.192115;-0.031215;-0.0228683;0.283937
0.192614;-0.0316107;-0.0228145;0.285535
0.193113;-0.0321743;-0.0234933;0.285999
0.193612;-0.0326183;-0.0235927;0.285343
0.194111;-0.0330396;-0.0235803;0.285967
0.19461;-0.0335885;-0.0247559;0.283889
0.195109;-0.0340621;-0.024789;0.286318
0.195608;-0.0345665;-0.0247973;0.28472
0.196107;-0.0350214;-0.0252734;0.282928
0.196606;-0.0355177;-0.0254142;0.285535
0.197105;-0.0360813;-0.0263127;0.285391
0.197604;-0.0365452;-0.0267267;0.282211
0.198103;-0.0370733;-0.0267018;0.282881
0.198602;-0.0376505;-0.0267556;0.283233
0.199101;-0.0380917;-0.0269212;0.285519
0.1996;-0.0385565;-0.0268633;0.284608
0.200099;-0.0390498;-0.0268633;0.284081
0.200598;-0.0395088;-0.0270537;0.2844
0.201097;-0.0399232;-0.0275628;0.283889
0.201596;-0.0404355;-0.0281258;0.284016
0.202095;-0.0409406;-0.0281051;0.284943
0.202594;-0.0414469;-0.0287509;0.284577
0.203093;-0.0419347;-0.0288171;0.286462
0.203592;-0.0425146;-0.0290407;0.284608
0.204091;-0.0430004;-0.0291856;0.286158
0.20459;-0.0435382;-0.0299805;0.284192
0.205089;-0.0440462;-0.0303075;0.285152
0.205588;-0.0444993;-0.0305104;0.28432
0.206087;-0.0449712;-0.0306305;0.284144
0.206586;-0.0454214;-0.0307629;0.285151
0.207085;-0.0458988;-0.030825;0.284464
0.207584;-0.0463555;-0.0310279;0.281971
0.208083;-0.0468563;-0.0310072;0.28293
0.208582;-0.047379;-0.0311562;0.28416
0.209081;-0.047915;-0.031268;0.285551
0.20958;-0.048292;-0.0319468;0.282578
0.210079;-0.0488388;-0.0320834;0.282658
0.210578;-0.0488814;-0.0320917;0.283808
0.211077;-0.0483857;-0.0321952;0.284719
0.211576;-0.0479513;-0.0316984;0.284304
0.212075;-0.0474681;-0.0310817;0.283936
0.212574;-0.0469529;-0.0309989;0.285311
0.213073;-0.0463733;-0.0309865;0.285119
0.213572;-0.0459168;-0.0309327;0.285998
0.214071;-0.045447;-0.0306014;0.285551
0.21457;-0.0449157;-0.0296865;0.28619
0.215069;-0.0444923;-0.0295043;0.285695
0.215568;-0.0440416;-0.0295168;0.283393
0.216067;-0.0435599;-0.029616;0.284593
0.216566;-0.043018;-0.0288999;0.285183
0.217065;-0.0425949;-0.0289496;0.284736
0.217564;-0.0420293;-0.0287881;0.283233
0.218063;-0.0415583;-0.028875;0.284352
0.218562;-0.0410817;-0.0287385;0.284992
0.219061;-0.0406123;-0.0288047;0.285359
0.21956;-0.0400564;-0.0288088;0.283905
0.220059;-0.0395265;-0.0276663;0.283617
0.220558;-0.0390973;-0.0273187;0.283617
0.221057;-0.0385683;-0.0269295;0.285231
0.221556;-0.0380661;-0.0268964;0.284064
0.222055;-0.0375775;-0.0264409;0.284752
0.222554;-0.037094;-0.0265693;0.283873
0.223053;-0.0366289;-0.0262919;0.283281
0.223552;-0.0362076;-0.0262422;0.2848
0.224051;-0.0356509;-0.0255797;0.283105
0.22455;-0.0351122;-0.0250375;0.285071
0.225049;-0.0346682;-0.0249174;0.285359
0.225548;-0.0342141;-0.0245448;0.284544
0.226047;-0.0337109;-0.0243502;0.283697
0.226546;-0.0332449;-0.0246773;0.283505
0.227045;-0.0327072;-0.0243585;0.283873
0.227544;-0.0321932;-0.0242302;0.283761
0.228043;-0.0316185;-0.0236341;0.284831
0.228542;-0.0311993;-0.0234271;0.285423
0.229041;-0.0307343;-0.0233526;0.283329
0.22954;-0.0302736;-0.0232367;0.283521
0.230039;-0.0298059;-0.0230546;0.284736
0.230538;-0.0293834;-0.0228062;0.285088
0.231037;-0.0287844;-0.0226655;0.286622
0.231536;-0.028422;-0.0225495;0.285983
0.232035;-0.0278814;-0.0223301;0.285407
0.232534;-0.0272963;-0.0218043;0.28456
0.233033;-0.0267592;-0.0212164;0.285871
0.233532;-0.0263014;-0.0209308;0.285599
0.234031;-0.0257921;-0.0207196;0.284176
0.23453;-0.0253313;-0.0207155;0.284784
0.235029;-0.0249157;-0.0205416;0.284992
0.235528;-0.0244194;-0.0201525;0.284528
0.236027;-0.0239506;-0.0196268;0.284048
0.236526;-0.023461;-0.0190348;0.283697
0.237025;-0.0229893;-0.0188692;0.285919
0.237524;-0.0224929;-0.0186995;0.28488
0.238023;-0.0220498;-0.0185918;0.283888
0.238522;-0.0216117;-0.0181365;0.284225
0.239021;-0.0210817;-0.0181199;0.284928
0.23952;-0.0205449;-0.0174658;0.285919
0.240019;-0.0200998;-0.017441;0.285807
0.240518;-0.0195975;-0.017118;0.286846
0.241017;-0.019112;-0.0178343;0.286526
0.241516;-0.0186332;-0.0166709;0.28683
0.242015;-0.0182069;-0.0166171;0.286319
0.242514;-0.0176562;-0.016526;0.28643
0.243013;-0.0172369;-0.0164846;0.286814
0.243512;-0.0168165;-0.0162197;0.286462
0.244011;-0.0163733;-0.0155325;0.286654
0.24451;-0.0158512;-0.0156277;0.284496
0.245009;-0.0154288;-0.015458;0.285631
0.245508;-0.0150086;-0.0153917;0.286031
0.246007;-0.0144174;-0.0149736;0.286223
0.246506;-0.0139476;-0.0146052;0.285727
0.247005;-0.0135094;-0.0144065;0.286798
0.247504;-0.0129439;-0.0142326;0.285998
0.248003;-0.0124287;-0.0136406;0.286478
0.248502;-0.0120173;-0.0128954;0.285999
0.249001;-0.0114853;-0.0128044;0.284767
0.2495;-0.0108912;-0.0124856;0.283984
0.249999;-0.0103839;-0.0119764;0.28611
0.250498;-0.00995367;-0.0123945;0.285503
0.250997;-0.0094642;-0.0121503;0.286014
0.251496;-0.00899637;-0.0121296;0.28504
0.251995;-0.00857009;-0.0121999;0.285679
0.252494;-0.00799469;-0.0113554;0.286398
