t;vds;corrente;vg
0.00998;0.00903585;0.00365648;-0.393272
0.01996;0.0109603;0.00462209;-0.398615
0.02994;0.012939;0.00562676;-0.398615
0.03992;0.014811;0.00658198;-0.398615
0.0499;0.0167375;0.00754562;-0.398615
0.05988;0.0185691;0.00850236;-0.398615
0.06986;0.0204877;0.00947388;-0.398615
0.07984;0.0224683;0.0104242;-0.398615
0.08982;0.024369;0.0114027;-0.398615
0.0998;0.0263251;0.0123766;-0.398615
0.10978;0.0282673;0.0133338;-0.398615
0.11976;0.030314;0.0143613;-0.398615
0.12974;0.0322896;0.0152937;-0.398615
0.13972;0.0341905;0.0162489;-0.398615
0.1497;0.0361919;0.0172156;-0.398615
0.15968;0.0382061;0.0182029;-0.398615
0.16966;0.0400909;0.0191849;-0.398615
0.17964;0.0420203;0.0201213;-0.398615
0.18962;0.0440098;0.0210938;-0.398615
0.1996;0.0458779;0.0220688;-0.398615
0.20958;0.0477888;0.0230217;-0.398615
0.21956;0.0475272;0.0229411;-0.398615
0.22954;0.0456353;0.0219418;-0.398615
0.23952;0.0437541;0.0210024;-0.398615
0.2495;0.0417863;0.0199777;-0.398615
0.25948;0.039866;0.0190297;-0.398615
0.26946;0.0378924;0.0180445;-0.398615
0.27944;0.0359026;0.0171005;-0.398615
0.28942;0.033921;0.0161298;-0.398615
0.2994;0.0320746;0.0151515;-0.398615
0.30938;0.0299973;0.0141824;-0.398615
0.31936;0.0280107;0.0132099;-0.398615
0.32934;0.0260782;0.0122176;-0.398615
0.33932;0.0241174;0.0112703;-0.398615
0.3493;0.0222068;0.0102855;-0.398615
0.35928;0.020239;0.0093193;-0.398615
0.36926;0.0183342;0.00839316;-0.398615
0.37924;0.0165036;0.00738016;-0.398615
0.38922;0.0145259;0.00642444;-0.398615
0.3992;0.012641;0.00546472;-0.398615
0.40918;0.0107194;0.00448776;-0.398615
0.41916;0.00866577;0.00353004;-0.398615
0.42914;0.00673151;0.00254764;-0.398615
0.43912;0.00478044;0.00153017;-0.398615
0.4491;0.00269023;0.000549733;-0.398615
0.45908;0.000762856;-0.000401064;-0.398615
0.46906;-0.001128;-0.00140026;-0.398615
0.47904;-0.00301985;-0.00235451;-0.398615
0.48902;-0.00508541;-0.00332903;-0.398615
0.499;-0.00706311;-0.00426352;-0.398615
0.50898;-0.00896084;-0.00521086;-0.398615
0.51896;-0.0110393;-0.00622089;-0.398615
0.52894;-0.0130219;-0.00722065;-0.398615
0.53892;-0.0149492;-0.00818473;-0.398615
0.5489;-0.0168145;-0.00910542;-0.398615
0.55888;-0.0186856;-0.0100315;-0.398615
0.56886;-0.0205804;-0.0110786;-0.398615
0.57884;-0.0224969;-0.0119949;-0.398615
0.58882;-0.0243749;-0.0129624;-0.398615
0.5988;-0.0263715;-0.0139611;-0.398615
0.60878;-0.0283551;-0.0149713;-0.398615
0.61876;-0.0302972;-0.0158982;-0.398615
0.62874;-0.0322965;-0.0168975;-0.398615
0.63872;-0.0342605;-0.017919;-0.398615
0.6487;-0.0362126;-0.0189073;-0.398615
0.65868;-0.0381746;-0.0198807;-0.398615
0.66866;-0.040082;-0.0208572;-0.398615
0.67864;-0.042116;-0.0218421;-0.398615
0.68862;-0.0440838;-0.0227732;-0.398615
0.6986;-0.0460033;-0.0237513;-0.398615
0.70858;-0.0479763;-0.0247653;-0.398615
0.71856;-0.0480621;-0.0248146;-0.398615
0.72854;-0.0461101;-0.0238253;-0.398615
0.73852;-0.0442053;-0.0228685;-0.398615
0.7485;-0.0421377;-0.0218904;-0.398615
0.75848;-0.0401797;-0.0209496;-0.398615
0.76846;-0.0382458;-0.0199155;-0.398615
0.77844;-0.0363014;-0.0189862;-0.398615
0.78842;-0.0343158;-0.0179694;-0.398615
0.7984;-0.0323865;-0.0169775;-0.398615
0.80838;-0.0304058;-0.0159999;-0.398615
0.81836;-0.0284783;-0.0150606;-0.398615
0.82834;-0.0264582;-0.0140085;-0.398615
0.83832;-0.0245537;-0.0130548;-0.398615
0.8483;-0.0226449;-0.0120783;-0.398615
0.85828;-0.0206544;-0.0110949;-0.398615
0.86826;-0.0187734;-0.010163;-0.398615
0.87824;-0.0169201;-0.00912769;-0.398615
0.88822;-0.0150066;-0.00818076;-0.398615
0.8982;-0.0131205;-0.00728978;-0.398615
0.90818;-0.0110333;-0.00626095;-0.398615
0.91816;-0.00907632;-0.00528892;-0.398615
0.92814;-0.00713513;-0.00430894;-0.398615
0.93812;-0.00505777;-0.00336556;-0.398615
0.9481;-0.00306129;-0.00240984;-0.398615
0.95808;-0.00113294;-0.0013978;-0.398615
0.96806;0.000752001;-0.000443044;-0.398615
0.97804;0.00267247;0.000498367;-0.398615
0.98802;0.00472322;0.00144027;-0.398615
0.998;0.00667332;0.00249726;-0.398615
1.00798;0.00865295;0.0034851;-0.398615
1.01796;0.0106573;0.00440873;-0.398615
1.02794;0.012562;0.00540249;-0.398615
1.03792;0.0144449;0.00638242;-0.398615
1.0479;0.0163645;0.00735796;-0.398615
1.05788;0.0182336;0.00831613;-0.398615
1.06786;0.0201927;0.00928767;-0.398615
1.07784;0.0220677;0.010238;-0.398615
1.08782;0.023985;0.0112357;-0.398615
1.0978;0.0260063;0.0121954;-0.398615
1.10778;0.0280008;0.0131343;-0.398615
1.11776;0.0298954;0.0141217;-0.398615
1.12774;0.0319542;0.0151322;-0.398615
1.13772;0.0339162;0.0160331;-0.398615
1.1477;0.0358691;0.0170012;-0.398615
1.15768;0.0378401;0.0180237;-0.398615
1.16766;0.0397605;0.0189621;-0.398615
1.17764;0.0417629;0.0199469;-0.398615
1.18762;0.0436445;0.0209333;-0.398615
1.1976;0.0455523;0.0218777;-0.398615
1.20758;0.047459;0.0228187;-0.398615
1.21756;0.0479063;0.0231036;-0.398615
1.22754;0.0460301;0.022127;-0.398615
1.23752;0.0441609;0.0211999;-0.398615
1.2475;0.0421723;0.0201792;-0.398615
1.25748;0.0401827;0.0192234;-0.398615
1.26746;0.0383149;0.0182751;-0.398615
1.27744;0.0364021;0.0173203;-0.398615
1.28742;0.0343661;0.0163388;-0.398615
1.2974;0.0323994;0.0153472;-0.398615
1.30738;0.0303664;0.0143919;-0.398615
1.31736;0.0284388;0.0134108;-0.398615
1.32734;0.0264661;0.0124483;-0.398615
1.33732;0.0245546;0.0114846;-0.398615
1.3473;0.0226193;0.0105214;-0.398615
1.35728;0.020602;0.00955142;-0.398615
1.36726;0.0187467;0.00861445;-0.398615
1.37724;0.0168707;0.00763011;-0.398615
1.38722;0.0150145;0.00667234;-0.398615
1.3972;0.0130721;0.00569587;-0.398615
1.40718;0.0111389;0.00468285;-0.398615
1.41716;0.00913652;0.00374589;-0.398615
1.42714;0.00711539;0.00275658;-0.398615
1.43712;0.00512291;0.00171539;-0.398615
1.4471;0.00319058;0.000765577;-0.398615
1.45708;0.00118031;-0.000217819;-0.398615
1.46706;-0.000720422;-0.00115133;-0.398615
1.47704;-0.00257675;-0.00215942;-0.398615
1.48702;-0.00457617;-0.0031354;-0.398615
1.497;-0.0066062;-0.00403484;-0.398615
1.50698;-0.00859571;-0.00501675;-0.398615
1.51696;-0.0105399;-0.00600704;-0.398615
1.52694;-0.0125867;-0.00699194;-0.398615
1.53692;-0.0145406;-0.00793135;-0.398615
1.5469;-0.0164464;-0.00887924;-0.398615
1.55688;-0.0183037;-0.00986158;-0.398615
1.56686;-0.0201689;-0.0108163;-0.398615
1.57684;-0.0221387;-0.0117969;-0.398615
1.58682;-0.0240245;-0.0127609;-0.398615
1.5968;-0.0259283;-0.0137423;-0.398615
1.60678;-0.0279248;-0.014711;-0.398615
1.61676;-0.0299123;-0.0157229;-0.398615
1.62674;-0.0318831;-0.0167098;-0.398615
1.63672;-0.0338323;-0.0176869;-0.398615
1.6467;-0.0357665;-0.0186721;-0.398615
1.65668;-0.037699;-0.0196387;-0.398615
1.66666;-0.0396589;-0.0206301;-0.398615
1.67664;-0.0416859;-0.0216396;-0.398615
1.68662;-0.0436326;-0.0226038;-0.398615
1.6966;-0.0456372;-0.0235473;-0.398615
1.70658;-0.0475844;-0.0245366;-0.398615
1.71656;-0.0483531;-0.0249692;-0.398615
1.72654;-0.0464704;-0.024012;-0.398615
1.73652;-0.044606;-0.0230572;-0.398615
1.7465;-0.0426115;-0.0220939;-0.398615
1.75648;-0.0405668;-0.0211155;-0.398615
1.76646;-0.0386137;-0.0201476;-0.398615
1.77644;-0.0366999;-0.0191631;-0.398615
1.78642;-0.0347511;-0.0181699;-0.398615
1.7964;-0.0327872;-0.0171524;-0.398615
1.80638;-0.0307216;-0.016159;-0.398615
1.81636;-0.0289096;-0.0152345;-0.398615
1.82634;-0.026858;-0.014253;-0.398615
1.83632;-0.0249453;-0.0132153;-0.398615
1.8463;-0.0230396;-0.0122522;-0.398615
1.85628;-0.0211073;-0.0112954;-0.398615
1.86626;-0.0191583;-0.0103491;-0.398615
1.87624;-0.0173682;-0.00940672;-0.398615
1.88622;-0.0153805;-0.00843811;-0.398615
1.8962;-0.0135094;-0.00746413;-0.398615
1.90618;-0.0114853;-0.00649062;-0.398615
1.91616;-0.00949281;-0.00549238;-0.398615
1.92614;-0.00757037;-0.00448677;-0.398615
1.93612;-0.00551764;-0.00357597;-0.398615
1.9461;-0.00351034;-0.00263358;-0.398615
1.95608;-0.00160763;-0.00159833;-0.398615
1.96606;0.000339487;-0.000624811;-0.398615
1.97604;0.00217903;0.000276596;-0.398615
1.98602;0.00420508;0.00123776;-0.398615
1.996;0.00621637;0.00225474;-0.398615
2.00598;0.00819601;0.00323616;-0.398615
2.01596;0.0101767;0.00420622;-0.398615
2.02594;0.0121208;0.00516689;-0.398615
2.03592;0.0140394;0.00616803;-0.398615
2.0459;0.0159618;0.0071431;-0.398615
2.05588;0.0178516;0.00813436;-0.398615
2.06586;0.0197219;0.00904518;-0.398615
2.07584;0.0216975;0.0100058;-0.398615
2.08582;0.0235952;0.0109784;-0.398615
2.0958;0.0255169;0.0119302;-0.398615
2.10578;0.0273829;0.0128903;-0.398615
2.11576;0.0294535;0.0139177;-0.398615
2.12574;0.0314085;0.0148809;-0.398615
2.13572;0.0333536;0.0158024;-0.398615
2.1457;0.035422;0.0167804;-0.398615
2.15568;0.0373771;0.0177876;-0.398615
2.16566;0.0393421;0.0187606;-0.398615
2.17564;0.0412052;0.0197019;-0.398615
2.18562;0.0432362;0.0206464;-0.398615
2.1956;0.0450997;0.0216445;-0.398615
2.20558;0.0469931;0.0226275;-0.398615
2.21556;0.0479949;0.0231422;-0.398615
2.22554;0.0462779;0.0222792;-0.398615
2.23552;0.0444532;0.0212972;-0.398615
2.2455;0.0425168;0.0203322;-0.398615
2.25548;0.0405786;0.0193898;-0.398615
2.26546;0.0386975;0.0184376;-0.398615
2.27544;0.0367365;0.0174512;-0.398615
2.28542;0.0347432;0.0164588;-0.398615
2.2954;0.0327931;0.0155284;-0.398615
2.30538;0.03084;0.0146038;-0.398615
2.31536;0.0288366;0.0136119;-0.398615
2.32534;0.0268896;0.0126499;-0.398615
2.33532;0.0248861;0.0116565;-0.398615
2.3453;0.0229508;0.0106898;-0.398615
2.35528;0.0210235;0.0097495;-0.398615
2.36526;0.0190645;0.00876016;-0.398615
2.37524;0.0172182;0.00780892;-0.398615
2.38522;0.0153944;0.00685113;-0.398615
2.3952;0.0134541;0.00586629;-0.398615
2.40518;0.011513;0.00484782;-0.398615
2.41516;0.00947899;0.00387925;-0.398615
2.42514;0.00749142;0.00293093;-0.398615
2.43512;0.00551171;0.00192579;-0.398615
2.4451;0.00353698;0.000938941;-0.398615
2.45508;0.00159381;3.95134e-06;-0.398615
2.46506;-0.000329618;-0.00096265;-0.398615
2.47504;-0.00220667;-0.00195494;-0.398615
2.48502;-0.00421693;-0.0029398;-0.398615
2.495;-0.00618577;-0.00386838;-0.398615
2.50498;-0.00823255;-0.00481423;-0.398615
2.51496;-0.0101579;-0.00581643;-0.398615
2.52494;-0.0121613;-0.00679536;-0.398615
2.53492;-0.0141667;-0.00780094;-0.398615
2.5449;-0.016026;-0.00872761;-0.398615
2.55488;-0.0179375;-0.00964723;-0.398615
2.56486;-0.0198324;-0.0106508;-0.398615
2.57484;-0.0217498;-0.0116087;-0.398615
2.58482;-0.0236949;-0.0125885;-0.398615
2.5948;-0.0255869;-0.0135665;-0.398615
2.60478;-0.0275457;-0.0145475;-0.398615
2.61476;-0.0295097;-0.0155539;-0.398615
2.62474;-0.0314401;-0.0165018;-0.398615
2.63472;-0.033474;-0.0175007;-0.398615
2.6447;-0.0353805;-0.0184711;-0.398615
2.65468;-0.0372784;-0.01946;-0.398615
2.66466;-0.0392019;-0.0204196;-0.398615
2.67464;-0.0412013;-0.0214212;-0.398615
2.68462;-0.043322;-0.0224067;-0.398615
2.6946;-0.0452487;-0.0233576;-0.398615
2.70458;-0.0471322;-0.0243177;-0.398615
2.71456;-0.04852;-0.0249994;-0.398615
2.72454;-0.0468226;-0.0242184;-0.398615
2.73452;-0.044966;-0.0232424;-0.398615
2.7445;-0.0430015;-0.0222565;-0.398615
2.75448;-0.0409388;-0.0212676;-0.398615
2.76446;-0.0389926;-0.020307;-0.398615
2.77444;-0.0370632;-0.0193513;-0.398615
2.78442;-0.0350945;-0.0183512;-0.398615
2.7944;-0.033171;-0.0173539;-0.398615
2.80438;-0.0311853;-0.0163748;-0.398615
2.81436;-0.0293182;-0.0154257;-0.398615
2.82434;-0.0272853;-0.0144432;-0.398615
2.83432;-0.0253727;-0.0134582;-0.398615
2.8443;-0.0234127;-0.0124503;-0.398615
2.85428;-0.021509;-0.011538;-0.398615
2.86426;-0.019563;-0.0105432;-0.398615
2.87424;-0.0176672;-0.0095855;-0.398615
2.88422;-0.0158108;-0.00859864;-0.398615
2.8942;-0.0139051;-0.00763949;-0.398615
2.90418;-0.0119018;-0.00664716;-0.398615
2.91416;-0.00989747;-0.0056855;-0.398615
2.92414;-0.00796218;-0.00472286;-0.398615
2.93412;-0.00596371;-0.00382838;-0.398615
2.9441;-0.00395443;-0.00280943;-0.398615
2.95408;-0.00194021;-0.00182751;-0.398615
2.96406;-3.94752e-05;-0.000842628;-0.398615
2.97404;0.00181586;9.82902e-05;-0.398615
2.98402;0.00383895;0.0010397;-0.398615
2.994;0.00580185;0.00203742;-0.398615
3.00398;0.00776772;0.00307514;-0.398615
3.01396;0.00979773;0.00401311;-0.398615
3.02394;0.0118218;0.00499106;-0.398615
3.03392;0.0136456;0.00595717;-0.398615
3.0439;0.0155917;0.00694502;-0.398615
3.05388;0.0174904;0.00790961;-0.398615
3.06386;0.0193528;0.00887234;-0.398615
3.07384;0.0212711;0.00984577;-0.398615
3.08382;0.0233111;0.0108529;-0.398615
3.0938;0.0251615;0.0117539;-0.398615
3.10378;0.0271382;0.0127441;-0.398615
3.11376;0.0290676;0.0136825;-0.398615
3.12374;0.0310631;0.014669;-0.398615
3.13372;0.0330891;0.0156364;-0.398615
3.1437;0.0350498;0.0166238;-0.398615
3.15368;0.0370416;0.0176098;-0.398615
3.16366;0.0389107;0.0185373;-0.398615
3.17364;0.0409041;0.0195231;-0.398615
3.18362;0.0428494;0.0204928;-0.398615
3.1936;0.0447779;0.0214523;-0.398615
3.20358;0.046648;0.0224427;-0.398615
3.21356;0.0481439;0.0231644;-0.398615
3.22354;0.0467426;0.0224946;-0.398615
3.23352;0.0448594;0.0215521;-0.398615
3.2435;0.0429493;0.0205436;-0.398615
3.25348;0.0410227;0.0196102;-0.398615
3.26346;0.0390676;0.0186554;-0.398615
3.27344;0.0371274;0.0176572;-0.398615
3.28342;0.0351389;0.0166811;-0.398615
3.2934;0.0331414;0.0156805;-0.398615
3.30338;0.0311972;0.0147445;-0.398615
3.31336;0.0291672;0.0137764;-0.398615
3.32334;0.0271531;0.0127689;-0.398615
3.33332;0.0252493;0.0118581;-0.398615
3.3433;0.0233752;0.0108938;-0.398615
3.35328;0.02143;0.00990511;-0.398615
3.36326;0.0194347;0.00892861;-0.398615
3.37324;0.0175803;0.00797039;-0.398615
3.38322;0.015719;0.00701068;-0.398615
3.3932;0.0137225;0.00599422;-0.398615
3.40318;0.0117972;0.0050217;-0.398615
3.41316;0.0098501;0.00407335;-0.398615
3.42314;0.0078467;0.00310824;-0.398615
3.43312;0.00590745;0.00213768;-0.398615
3.4431;0.00393667;0.00109699;-0.398615
3.45308;0.00186027;0.00014867;-0.398615
3.46306;-7.89504e-06;-0.000801631;-0.398615
3.47304;-0.0018652;-0.00175045;-0.398615
3.48302;-0.00370078;-0.00270767;-0.398615
3.493;-0.00577718;-0.00368661;-0.398615
3.50298;-0.00782496;-0.00463049;-0.398615
3.51296;-0.00975923;-0.00562972;-0.398615
3.52294;-0.011807;-0.00663681;-0.398615
3.53292;-0.0138164;-0.00764042;-0.398615
3.5429;-0.0157062;-0.00856164;-0.398615
3.55288;-0.0176059;-0.00950699;-0.398615
3.56286;-0.019485;-0.0105224;-0.398615
3.57284;-0.0213619;-0.0114575;-0.398615
3.58282;-0.023312;-0.0124062;-0.398615
3.5928;-0.0252523;-0.0133976;-0.398615
3.60278;-0.0272142;-0.0143766;-0.398615
3.61276;-0.0291604;-0.0153737;-0.398615
3.62274;-0.0310286;-0.0163349;-0.398615
3.63272;-0.0330575;-0.0173164;-0.398615
3.6427;-0.035037;-0.0183249;-0.398615
3.65268;-0.0369518;-0.0193039;-0.398615
3.66266;-0.0389669;-0.0202803;-0.398615
3.67264;-0.0408686;-0.0212577;-0.398615
3.68262;-0.0429087;-0.0222076;-0.398615
3.6926;-0.0448726;-0.0231679;-0.398615
3.70258;-0.0467534;-0.0241537;-0.398615
3.71256;-0.0484106;-0.024994;-0.398615
3.72254;-0.0472734;-0.0244032;-0.398615
3.73252;-0.0453895;-0.0234707;-0.398615
3.7425;-0.043402;-0.0224862;-0.398615
3.75248;-0.0413759;-0.0215091;-0.398615
3.76246;-0.0393706;-0.0204952;-0.398615
3.77244;-0.0374334;-0.019538;-0.398615
3.78242;-0.0355493;-0.0185882;-0.398615
3.7924;-0.033541;-0.0175451;-0.398615
3.80238;-0.0316077;-0.016569;-0.398615
3.81236;-0.0297012;-0.0156059;-0.398615
3.82234;-0.0277147;-0.0146621;-0.398615
3.83232;-0.0257625;-0.0136148;-0.398615
3.8423;-0.0237768;-0.01268;-0.398615
3.85228;-0.0218546;-0.0116763;-0.398615
3.86226;-0.0199824;-0.0107007;-0.398615
3.87224;-0.0180243;-0.00976728;-0.398615
3.88222;-0.0161917;-0.0087814;-0.398615
3.8922;-0.0142456;-0.00782669;-0.398615
3.90218;-0.0123331;-0.00686842;-0.398615
3.91216;-0.0103109;-0.00587519;-0.398615
3.92214;-0.00829769;-0.0048661;-0.398615
3.93212;-0.00634764;-0.00395482;-0.398615
3.9421;-0.00433732;-0.00297538;-0.398615
3.95208;-0.00235668;-0.00204235;-0.398615
3.96206;-0.000479622;-0.00105402;-0.398615
3.97204;0.00147538;-7.26063e-05;-0.398615
3.98202;0.00339881;0.000840157;-0.398615
3.992;0.0054308;0.00182355;-0.398615
4.00198;0.00736015;0.00287412;-0.398615
4.01196;0.00935758;0.0038506;-0.398615
4.02194;0.0113481;0.00482115;-0.398615
4.03192;0.0132982;0.00577643;-0.398615
4.0419;0.0151653;0.00674745;-0.398615
4.05188;0.0171095;0.00771993;-0.398615
4.06186;0.0189609;0.00868513;-0.398615
4.07184;0.0208883;0.00964822;-0.398615
4.08182;0.0228947;0.0106059;-0.398615
4.0918;0.0247677;0.0115998;-0.398615
4.10178;0.0266794;0.0125366;-0.398615
4.11176;0.0286521;0.013521;-0.398615
4.12174;0.0306604;0.0145386;-0.398615
4.13172;0.0326114;0.0154314;-0.398615
4.1417;0.0346513;0.0164465;-0.398615
4.15168;0.0365808;0.0173989;-0.398615
4.16166;0.0385898;0.0183758;-0.398615
4.17164;0.0405015;0.019341;-0.398615
4.18162;0.0424289;0.0203045;-0.398615
4.1916;0.0443682;0.0212799;-0.398615
4.20158;0.0462659;0.0222555;-0.398615
4.21156;0.0480038;0.023118;-0.398615
4.22154;0.0471372;0.0227272;-0.398615
4.23152;0.045277;0.0217556;-0.398615
4.2415;0.0433665;0.0207481;-0.398615
4.25148;0.0413827;0.0197663;-0.398615
4.26146;0.0393983;0.0188257;-0.398615
4.27144;0.0375498;0.0178582;-0.398615
4.28142;0.0355256;0.0168634;-0.398615
4.2914;0.0335203;0.0158681;-0.398615
4.30138;0.0316127;0.014951;-0.398615
4.31136;0.0295877;0.0139364;-0.398615
4.32134;0.0275834;0.0129832;-0.398615
4.33132;0.0256412;0.0120235;-0.398615
4.3413;0.0237334;0.0110845;-0.398615
4.35128;0.0218506;0.0101121;-0.398615
4.36126;0.0198512;0.00912275;-0.398615
4.37124;0.0179552;0.00816346;-0.398615
4.38122;0.0160604;0.00721914;-0.398615
4.3912;0.0141587;0.00622587;-0.398615
4.40118;0.0122986;0.00524744;-0.398615
4.41116;0.0102892;0.00425115;-0.398615
4.42114;0.0082602;0.00328703;-0.398615
4.43112;0.00634961;0.00233377;-0.398615
4.4411;0.00435804;0.00131877;-0.398615
4.45108;0.00234582;0.00034031;-0.398615
4.46106;0.000418436;-0.000605546;-0.398615
4.47104;-0.00147341;-0.00156967;-0.398615
4.48102;-0.00342644;-0.0025511;-0.398615
4.491;-0.00541995;-0.00352412;-0.398615
4.50098;-0.00745785;-0.0044759;-0.398615
4.51096;-0.00940299;-0.00543163;-0.398615
4.52094;-0.0113906;-0.00643972;-0.398615
4.53092;-0.0133624;-0.00739846;-0.398615
4.5409;-0.0152818;-0.00834429;-0.398615
4.55088;-0.0171806;-0.00928373;-0.398615
4.56086;-0.0190458;-0.0102844;-0.398615
4.57084;-0.0210008;-0.0112574;-0.398615
4.58082;-0.0228927;-0.0121747;-0.398615
4.5908;-0.0248644;-0.013155;-0.398615
4.60078;-0.0268027;-0.0141701;-0.398615
4.61076;-0.0287251;-0.0151485;-0.398615
4.62074;-0.0306555;-0.0161383;-0.398615
4.63072;-0.0327259;-0.0170995;-0.398615
4.6407;-0.034599;-0.0181259;-0.398615
4.65068;-0.0366361;-0.0191251;-0.398615
4.66066;-0.0385237;-0.0200477;-0.398615
4.67064;-0.0404492;-0.0210241;-0.398615
4.68062;-0.0424753;-0.0220016;-0.398615
4.6906;-0.0444234;-0.0229708;-0.398615
4.70058;-0.0463715;-0.0239617;-0.398615
4.71056;-0.0482989;-0.0249051;-0.398615
4.72054;-0.0476872;-0.0246304;-0.398615
4.73052;-0.0457587;-0.02365;-0.398615
4.7405;-0.0438637;-0.0226611;-0.398615
4.75048;-0.0418405;-0.0217333;-0.398615
4.76046;-0.0397408;-0.0207397;-0.398615
4.77044;-0.0378391;-0.0197554;-0.398615
4.78042;-0.03588;-0.0187941;-0.398615
4.7904;-0.0339318;-0.0177861;-0.398615
4.80038;-0.0320016;-0.0167725;-0.398615
4.81036;-0.0301078;-0.015834;-0.398615
4.82034;-0.0280699;-0.014831;-0.398615
4.83032;-0.0260851;-0.0138263;-0.398615
4.8403;-0.0241786;-0.0128306;-0.398615
4.85028;-0.022267;-0.0118877;-0.398615
4.86026;-0.0202962;-0.0109136;-0.398615
4.87024;-0.0183993;-0.00994018;-0.398615
4.88022;-0.0165668;-0.00898641;-0.398615
4.8902;-0.0146779;-0.00807705;-0.398615
4.90018;-0.0127613;-0.00711688;-0.398615
4.91016;-0.0107254;-0.00611968;-0.398615
4.92014;-0.00875163;-0.00509728;-0.398615
4.93012;-0.00679764;-0.00414002;-0.398615
4.9401;-0.00470148;-0.00320751;-0.398615
4.95008;-0.0028274;-0.00229969;-0.398615
4.96006;-0.000893125;-0.00129851;-0.398615
4.97004;0.00113096;-0.000288449;-0.398615
4.98002;0.00301294;0.000637157;-0.398615
4.99;0.00510121;0.00161314;-0.398615
4.99998;0.00695259;0.00262963;-0.398615
5.00996;0.00895986;0.00362684;-0.398615
5.01994;0.0110117;0.00461222;-0.398615
5.02992;0.0129568;0.00558427;-0.398615
5.0399;0.0148288;0.00654147;-0.398615
5.04988;0.0167237;0.00748586;-0.398615
5.05986;0.018581;0.00846729;-0.398615
5.06984;0.0204788;0.00942845;-0.398615
