t;vds;corrente;vg
0.000499;0.0211341;0.0026789;-0.095919
0.000998;0.0216196;0.00287716;-0.0952935
0.001497;0.0220143;0.00379205;-0.0952935
0.001996;0.0224378;0.0038914;-0.0952935
0.002495;0.0229242;0.00403215;-0.0952935
0.002994;0.0233703;0.00413151;-0.0952935
0.003493;0.023844;0.00413151;-0.0952935
0.003992;0.0243935;0.00437991;-0.0952935
0.004491;0.0248467;0.00453722;-0.0952935
0.00499;0.0253618;0.00572533;-0.0952935
0.005489;0.0258514;0.00549765;-0.0952935
0.005988;0.0263674;0.0056301;-0.0952935
0.006487;0.0267742;0.00587021;-0.0952935
0.006986;0.0273564;0.00619726;-0.095198
0.007485;0.0278368;0.00619726;-0.0952935
0.007984;0.0282238;0.00620554;-0.0952935
0.008483;0.0287507;0.00644977;-0.0953253
0.008982;0.0293223;0.00658639;-0.0952935
0.009481;0.0297485;0.00698796;-0.0952935
0.00998;0.0301896;0.00782419;-0.0952935
0.010479;0.0308145;0.00784076;-0.0952935
0.010978;0.0313383;0.00811398;-0.0952935
0.011477;0.0317974;0.0081678;-0.0952935
0.011976;0.0323223;0.00832926;-0.0952935
0.012475;0.0327662;0.00844517;-0.0952935
0.012974;0.0332421;0.0086439;-0.0952935
0.013473;0.0337374;0.00872256;-0.0952935
0.013972;0.0342408;0.00925657;-0.0952935
0.014471;0.0347549;0.00938904;-0.0952935
0.01497;0.0352433;0.00970367;-0.0952935
0.015469;0.0357418;0.0101715;-0.0952935
0.015968;0.0362766;0.0104447;-0.0952935
0.016467;0.0366963;0.0102708;-0.0952935
0.016966;0.0372222;0.0106061;-0.0952935
0.017465;0.0377709;0.0117446;-0.0951025
0.017964;0.0382081;0.0114424;-0.0952935
0.018463;0.0386364;0.0115997;-0.0952935
0.018962;0.0392492;0.0121213;-0.0952616
0.019461;0.039644;0.0123779;-0.0952935
0.01996;0.0401692;0.0126802;-0.0949752
0.020459;0.0406178;0.0128665;-0.0952935
0.020958;0.0410708;0.0127795;-0.0952935
0.021457;0.041519;0.0128872;-0.0952298
0.021956;0.0420206;0.0138683;-0.0952935
0.022455;0.0425423;0.0142285;-0.0949115
0.022954;0.0430655;0.0143071;-0.0952935
0.023453;0.0435441;0.0142326;-0.0951343
0.023952;0.04406;0.0147542;-0.0952935
0.024451;0.0445309;0.015015;-0.0952935
0.02495;0.0449455;0.0161286;-0.0951662
0.025449;0.0454303;0.0165467;-0.0952935
0.025948;0.0458801;0.0166585;-0.0952935
0.026447;0.0463585;0.0172878;-0.0952935
0.026946;0.0468217;0.0172754;-0.0952935
0.027445;0.0473623;0.0177514;-0.0952616
0.027944;0.0478646;0.0178218;-0.0952935
0.028443;0.0482554;0.0181199;-0.0952935
0.028942;0.0480737;0.01759;-0.0952935
0.029441;0.0475836;0.0173499;-0.0952935
0.02994;0.0470979;0.0170228;-0.0952935
0.030439;0.0466142;0.0168076;-0.0951661
0.030938;0.0461052;0.016555;-0.0951025
0.031437;0.0456927;0.0164432;-0.0951661
0.031936;0.0452654;0.0163149;-0.0946251
0.032435;0.0447282;0.015843;-0.0951662
0.032934;0.0442951;0.0159133;-0.0947524
0.033433;0.0436743;0.0147045;-0.0952935
0.033932;0.043249;0.0143651;-0.0952935
0.034431;0.04273;0.0141581;-0.0952935
0.03493;0.0421951;0.0139304;-0.0952935
0.035429;0.0417984;0.0129037;-0.0952935
0.035928;0.0413362;0.0125601;-0.0952935
0.036427;0.0408321;0.012527;-0.0952935
0.036926;0.040332;0.0123117;-0.0952298
0.037425;0.0399063;0.0123945;-0.0952935
0.037924;0.0393363;0.0123448;-0.0952935
0.038423;0.0388801;0.0115376;-0.0952935
0.038922;0.038363;0.0107965;-0.0952935
0.039421;0.0379003;0.0104902;-0.0952935
0.03992;0.0374107;0.0105109;-0.0952935
0.040419;0.036862;0.010159;-0.0952935
0.040918;0.0364029;0.0101259;-0.0952935
0.041417;0.0359008;0.0102335;-0.0952935
0.041916;0.0354496;0.0102004;-0.0952935
0.042415;0.0350075;0.0102004;-0.0952935
0.042914;0.0345113;0.00964571;-0.0952935
0.043413;0.0339594;0.00861906;-0.0952935
0.043912;0.0335274;0.00882191;-0.0952935
0.044411;0.0330267;0.00863146;-0.0952935
0.04491;0.0325809;0.0086646;-0.0954844
0.045409;0.0320175;0.00826302;-0.0952935
0.045908;0.0315603;0.00824232;-0.0952935
0.046407;0.0310414;0.00823818;-0.0952935
0.046906;0.0305044;0.00823404;-0.0952935
0.047405;0.0300476;0.0081678;-0.0952935
0.047904;0.0295414;0.0082092;-0.0948797
0.048403;0.0290172;0.00808915;-0.0952935
0.048902;0.0285356;0.00700449;-0.0952935
0.049401;0.028056;0.00675198;-0.0952935
0.0499;0.027541;0.00653671;-0.0952935
0.050399;0.0270821;0.00649118;-0.0952935
0.050898;0.026626;0.00632973;-0.0952935
0.051397;0.0261001;0.00612275;-0.0952935
0.051896;0.0256016;0.00606893;-0.0952935
0.052395;0.0250974;0.005982;-0.0952935
0.052894;0.0245811;0.00551006;-0.0952935
0.053393;0.0240897;0.00526582;-0.0952935
0.053892;0.0236753;0.0046697;-0.0952935
0.054391;0.0231777;0.00413151;-0.0952935
0.05489;0.022722;0.00409425;-0.0952935
0.055389;0.0222916;0.00410667;-0.0952935
0.055888;0.0218466;0.0039121;-0.0952616
0.056387;0.0213927;0.00326217;-0.0952935
0.056886;0.0208754;0.00384173;-0.0952935
0.057385;0.0203812;0.00316281;-0.0952935
0.057884;0.0198304;0.00273228;-0.0952935
0.058383;0.0192935;0.00248389;-0.0952935
0.058882;0.0188958;0.00235141;-0.095007
0.059381;0.0184704;0.00213613;-0.095198
0.05988;0.017973;0.00185876;-0.0952935
0.060379;0.0174905;0.00156898;-0.0952935
0.060878;0.0171086;0.000683067;-0.0952935
0.061377;0.0166211;0.000455378;-0.0952935
0.061876;0.0161631;0.000293926;-0.0952935
0.062375;0.0156735;2.48388e-05;-0.0952935
0.062874;0.0151062;-1.24194e-05;-0.0947524
0.063373;0.0146177;-0.000153173;-0.0946251
0.063872;0.0141765;-0.000372582;-0.0950388
0.064371;0.0137038;-0.00125022;-0.0951025
0.06487;0.0132162;-0.0019664;-0.095198
0.065369;0.0127574;-0.0015814;-0.0950707
0.065868;0.0122738;-0.00202022;-0.0952935
0.066367;0.0117706;-0.00217753;-0.0952935
0.066866;0.0112347;-0.00228517;-0.0952935
0.067365;0.0107856;-0.00214441;-0.095198
0.067864;0.0102961;-0.00224791;-0.0952616
0.068363;0.00976128;-0.00299307;-0.0952935
0.068862;0.0093043;-0.00335737;-0.0947842
0.069361;0.0087911;-0.00354367;-0.0952616
0.06986;0.00834409;-0.00381274;-0.0945933
0.070359;0.00783384;-0.00374237;-0.0951025
0.070858;0.00730787;-0.00385414;-0.0946251
0.071357;0.00676505;-0.00413151;-0.0952935
0.071856;0.00621046;-0.00437577;-0.0952935
0.072355;0.00578213;-0.00435093;-0.0952616
0.072854;0.00535381;-0.0046697;-0.0952935
0.073353;0.0048229;-0.00463657;-0.0952935
0.073852;0.00436593;-0.0050547;-0.0952935
0.074351;0.00378863;-0.00603167;-0.0952935
0.07485;0.0033406;-0.00609376;-0.0952935
0.075349;0.00276523;-0.00625107;-0.0952935
0.075848;0.00240404;-0.00624279;-0.0952935
0.076347;0.00176849;-0.00697968;-0.0952935
0.076846;0.00136189;-0.00693828;-0.0952935
0.077345;0.000929637;-0.00690516;-0.0952935
0.077844;0.000433239;-0.0077207;-0.0952935
0.078343;-9.27668e-05;-0.00722392;-0.0952935
0.078842;-0.000545742;-0.00750958;-0.0952935
0.079341;-0.00102931;-0.00798978;-0.0952935
0.07984;-0.0015346;-0.00818436;-0.0952935
0.080339;-0.0020231;-0.00839963;-0.0952935
0.080838;-0.00251754;-0.00826302;-0.0952935
0.081337;-0.00295571;-0.00856522;-0.0952935
0.081836;-0.00343139;-0.00948842;-0.0956436
0.082335;-0.00385276;-0.00966226;-0.0952935
0.082834;-0.00434027;-0.0103495;-0.0952935
0.083333;-0.00490579;-0.0103288;-0.0952935
0.083832;-0.0053933;-0.0107138;-0.0952935
0.084331;-0.00591438;-0.0108835;-0.0952298
0.08483;-0.00654204;-0.011699;-0.0952935
0.085329;-0.00708386;-0.0119805;-0.0952935
0.085828;-0.00750523;-0.0121337;-0.0954526
0.086327;-0.00793548;-0.0121668;-0.0952935
0.086826;-0.00845066;-0.0122496;-0.0952935
0.087325;-0.00889176;-0.0122372;-0.0952935
0.087824;-0.00938719;-0.0123945;-0.0952935
0.088323;-0.0099132;-0.012854;-0.0952935
0.088822;-0.0103849;-0.0132473;-0.0954208
0.089321;-0.01083;-0.0130155;-0.0952935
0.08982;-0.0113926;-0.0139718;-0.0952935
0.090319;-0.0119649;-0.0140918;-0.0952935
0.090818;-0.0124169;-0.014274;-0.0952935
0.091317;-0.0129113;-0.0144148;-0.0952298
0.091816;-0.0134423;-0.0145348;-0.0952935
0.092315;-0.0138844;-0.014866;-0.0952935
0.092814;-0.0143029;-0.0153669;-0.0952935
0.093313;-0.0148526;-0.0155242;-0.0952935
0.093812;-0.0153361;-0.0158968;-0.0952935
0.094311;-0.0157466;-0.0162156;-0.0952935
0.09481;-0.0162746;-0.0165053;-0.0952935
0.095309;-0.0167356;-0.0165302;-0.0952935
0.095808;-0.0171806;-0.0166378;-0.0952935
0.096307;-0.0176789;-0.0168655;-0.0952935
0.096806;-0.0181122;-0.0175196;-0.0952935
0.097305;-0.018653;-0.0176355;-0.0952935
0.097804;-0.0191169;-0.0180578;-0.0952935
0.098303;-0.0195373;-0.0173995;-0.0952935
0.098802;-0.0200535;-0.0182938;-0.0954526
0.099301;-0.0204412;-0.0185546;-0.0952935
0.0998;-0.0210315;-0.0185132;-0.0952935
0.100299;-0.0214478;-0.0185753;-0.0952935
0.100798;-0.0219807;-0.019221;-0.0952935
0.101297;-0.0224427;-0.0197551;-0.0957391
0.101796;-0.0229399;-0.0198793;-0.0952935
0.102295;-0.0233733;-0.0203056;-0.0953571
0.102794;-0.0238765;-0.020732;-0.0952935
0.103293;-0.0243797;-0.0206741;-0.0952935
0.103792;-0.0248813;-0.0206782;-0.0952935
0.104291;-0.0253312;-0.0211377;-0.0953889
0.10479;-0.0257863;-0.0215393;-0.0952935
0.105289;-0.0262677;-0.0213862;-0.0952935
0.105788;-0.026703;-0.0222431;-0.0952935
0.106287;-0.0271719;-0.0220776;-0.0952935
0.106786;-0.0276603;-0.0221065;-0.0952935
0.107285;-0.0281241;-0.0226779;-0.0952935
0.107784;-0.0286521;-0.0226447;-0.0952935
0.108283;-0.0292078;-0.0226655;-0.0952935
0.108782;-0.0296687;-0.0228393;-0.0952935
0.109281;-0.0301541;-0.0232201;-0.0952935
0.10978;-0.0306525;-0.0230214;-0.0952935
0.110279;-0.0311055;-0.0233734;-0.0952935
0.110778;-0.0316018;-0.023779;-0.0952935
0.111277;-0.0321062;-0.0244868;-0.0952935
0.111776;-0.0326114;-0.0244827;-0.0952935
0.112275;-0.033093;-0.0247807;-0.0952935
0.112774;-0.0336329;-0.0247973;-0.0952935
0.113273;-0.0340927;-0.0250209;-0.0952935
0.113772;-0.0345626;-0.0255508;-0.0952935
0.114271;-0.035044;-0.0256005;-0.0952935
0.11477;-0.0355117;-0.0259648;-0.0952935
0.115269;-0.0360043;-0.0264451;-0.0952935
0.115768;-0.0364938;-0.0267929;-0.0952935
0.116267;-0.0370013;-0.0271033;-0.0952935
0.116766;-0.037528;-0.0271944;-0.0952935
0.117265;-0.0380858;-0.0281589;-0.0952935
0.117764;-0.0385052;-0.0277574;-0.0952935
0.118263;-0.0389303;-0.0273683;-0.0952935
0.118762;-0.0394397;-0.0278194;-0.0952935
0.119261;-0.0398936;-0.0281382;-0.0952935
0.11976;-0.0403577;-0.0284529;-0.0952935
0.120259;-0.0408744;-0.028904;-0.0952935
0.120758;-0.0413491;-0.0291565;-0.0952935
0.121257;-0.0418241;-0.0290199;-0.0952935
0.121756;-0.0424199;-0.0292849;-0.0952935
0.122255;-0.0429925;-0.0293966;-0.0952935
0.122754;-0.0434869;-0.0296907;-0.0952935
0.123253;-0.0439584;-0.0301419;-0.0952935
0.123752;-0.0444461;-0.0308457;-0.0952935
0.124251;-0.0448438;-0.0308664;-0.0949115
0.12475;-0.045376;-0.0308788;-0.0952935
0.125249;-0.0457855;-0.0309865;-0.0952935
0.125748;-0.0462755;-0.0309782;-0.0952935
0.126247;-0.0467062;-0.0311562;-0.0952935
0.126746;-0.0472263;-0.0314584;-0.0952935
0.127245;-0.0477758;-0.0320544;-0.0952935
0.127744;-0.0482692;-0.0327209;-0.0952935
0.128243;-0.0487589;-0.0326299;-0.0952935
0.128742;-0.0489012;-0.0329693;-0.0952935
0.129241;-0.0484271;-0.0321207;-0.0952935
0.12974;-0.0479011;-0.0321414;-0.0952935
0.130239;-0.0474434;-0.0315246;-0.0956436
0.130738;-0.0469972;-0.031504;-0.0952935
0.131237;-0.0464868;-0.0310734;-0.0952935
0.131736;-0.0459562;-0.0309865;-0.0952935
0.132235;-0.0455466;-0.0311024;-0.0952935
0.132734;-0.04505;-0.0309616;-0.0952935
0.133233;-0.0445762;-0.0309699;-0.0952935
0.133732;-0.0440554;-0.030941;-0.0952935
0.134231;-0.0435993;-0.030676;-0.0952935
0.13473;-0.0431335;-0.0309658;-0.0952935
0.135229;-0.0426729;-0.0308499;-0.0952935
0.135728;-0.042128;-0.0300508;-0.0952935
0.136227;-0.0415702;-0.0292393;-0.0952935
0.136726;-0.0410422;-0.02979;-0.0952935
0.137225;-0.0406005;-0.0292062;-0.0952935
0.137724;-0.0400199;-0.0289206;-0.0952935
0.138223;-0.0395176;-0.0288626;-0.0952935
0.138722;-0.0390538;-0.0284777;-0.0952935
0.139221;-0.0385663;-0.0277864;-0.0952935
0.13972;-0.0380591;-0.0282459;-0.0952935
0.140219;-0.0376061;-0.027567;-0.0952935
0.140718;-0.0372153;-0.0275132;-0.0952935
0.141217;-0.0366674;-0.026855;-0.0952935
0.141716;-0.0361928;-0.026855;-0.0952935
0.142215;-0.0356944;-0.0265279;-0.0952935
0.142714;-0.035196;-0.026267;-0.0952935
0.143213;-0.0347007;-0.0258945;-0.0952935
0.143712;-0.0342417;-0.0252568;-0.0952935
0.144211;-0.033703;-0.0249505;-0.0952935
0.14471;-0.0331886;-0.0246317;-0.0952935
0.145209;-0.0327427;-0.0243006;-0.0952935
0.145708;-0.0322908;-0.0243461;-0.0952935
0.146207;-0.0316945;-0.0240563;-0.0952935
0.146706;-0.0312979;-0.0242509;-0.0952935
0.147205;-0.0308004;-0.0232078;-0.0952935
0.147704;-0.0303022;-0.0229014;-0.0952935
0.148203;-0.0298612;-0.0228352;-0.0952935
0.148702;-0.0294436;-0.0227276;-0.0952935
0.149201;-0.0289383;-0.0226406;-0.0952935
0.1497;-0.0283253;-0.0221314;-0.0952935
0.150199;-0.0278902;-0.0218457;-0.0952935
0.150698;-0.0273782;-0.0213158;-0.0952935
0.151197;-0.0268618;-0.0210218;-0.0952935
0.151696;-0.0263734;-0.021175;-0.0954208
0.152195;-0.0259341;-0.0206203;-0.0952935
0.152694;-0.0254438;-0.0204795;-0.0952935
0.153193;-0.0249957;-0.0203802;-0.0952935
0.153692;-0.0245614;-0.0200945;-0.0952935
0.154191;-0.0240256;-0.0195605;-0.0952935
0.15469;-0.0235953;-0.0195398;-0.0952935
0.155189;-0.0231551;-0.019366;-0.0952935
0.155688;-0.022647;-0.0190927;-0.0952935
0.156187;-0.0221288;-0.0186167;-0.0952935
0.156686;-0.0216403;-0.0187781;-0.0952935
0.157185;-0.0211301;-0.0188237;-0.0952935
0.157684;-0.0207135;-0.0185463;-0.0952935
0.158183;-0.0201551;-0.0184345;-0.0952935
0.158682;-0.0196863;-0.0184345;-0.0952935
0.159181;-0.0192422;-0.0181654;-0.0952935
0.15968;-0.0187399;-0.01759;-0.0952935
0.160179;-0.0182957;-0.016584;-0.0952935
0.160678;-0.0178338;-0.016526;-0.0952935
0.161177;-0.0173435;-0.016613;-0.0952935
0.161676;-0.0168481;-0.0164805;-0.0952935
0.162175;-0.0164375;-0.0165178;-0.0952935
0.162674;-0.0158838;-0.0160003;-0.0952935
0.163173;-0.0154979;-0.0160789;-0.0952935
0.163672;-0.0149878;-0.0148618;-0.0952935
0.164171;-0.0144874;-0.0149322;-0.0952935
0.16467;-0.0139762;-0.0148204;-0.0952935
0.165169;-0.0134383;-0.0147128;-0.0952935
0.165668;-0.0129932;-0.0144023;-0.0952935
0.166167;-0.0124376;-0.0138435;-0.0952935
0.166666;-0.0120262;-0.0142988;-0.0959299
0.167165;-0.011587;-0.0140173;-0.0953253
0.167664;-0.0110718;-0.0136158;-0.0952935
0.168163;-0.0105142;-0.0128582;-0.0952935
0.168662;-0.0100741;-0.0129741;-0.0952935
0.169161;-0.00955599;-0.0131024;-0.0955481
0.16966;-0.00901708;-0.0125104;-0.0952935
0.170159;-0.00848719;-0.0122662;-0.0952935
0.170658;-0.00807858;-0.0119226;-0.0952935
0.171157;-0.00751513;-0.0115127;-0.0952935
0.171656;-0.00705817;-0.0105026;-0.0952935
0.172155;-0.00661405;-0.0104861;-0.0952935
0.172654;-0.00609402;-0.0107386;-0.0952935
0.173153;-0.00561633;-0.0103288;-0.0952935
0.173652;-0.0051594;-0.0103288;-0.0953571
0.174151;-0.00462747;-0.00996446;-0.0956117
0.17465;-0.00408666;-0.0101839;-0.0952935
0.175149;-0.00349356;-0.0098486;-0.0952935
0.175648;-0.00313731;-0.00951325;-0.0952935
0.176147;-0.00260536;-0.00907858;-0.0952935
0.176646;-0.00209909;-0.00831684;-0.0952935
0.177145;-0.00162737;-0.00820092;-0.0952935
0.177644;-0.00115169;-0.00801048;-0.0952935
0.178143;-0.000677984;-0.00818436;-0.0952935
0.178642;-0.000129281;-0.00771242;-0.0952935
0.179141;0.000225995;-0.00741435;-0.0952935
0.17964;0.000733248;-0.00712455;-0.0952935
0.180139;0.00122373;-0.00706661;-0.0952935
0.180638;0.0016392;-0.00671058;-0.0952935
0.181137;0.00207639;-0.00649532;-0.0952935
0.181636;0.00263399;-0.00656569;-0.0952935
0.182135;0.00307611;-0.00638354;-0.0952935
0.182634;0.00362382;-0.00649946;-0.0952935
0.183133;0.00417645;-0.00624693;-0.0952935
0.183632;0.00471827;-0.00616;-0.0952935
0.184131;0.00516534;-0.00581227;-0.0952935
0.18463;0.00565977;-0.00599442;-0.0954526
0.185129;0.00615121;-0.00585366;-0.0952935
0.185628;0.00656177;-0.00540242;-0.0952935
0.186127;0.00708683;-0.00491395;-0.0955799
0.186626;0.00747168;-0.00435507;-0.0952935
0.187125;0.0079947;-0.00400318;-0.095007
0.187624;0.00854637;-0.00402388;-0.0952935
0.188123;0.00906844;-0.00398662;-0.0952935
0.188622;0.00961022;-0.00298065;-0.0952935
0.189121;0.0101648;-0.00252942;-0.0952935
0.18962;0.010602;-0.00235555;-0.0952935
0.190119;0.0111518;-0.00222307;-0.0952935
0.190618;0.0116383;-0.0020285;-0.0952935
0.191117;0.0121652;-0.00191672;-0.0952935
0.191616;0.0125176;-0.00156898;-0.0952935
0.192115;0.0130041;-0.00173871;-0.0952935
0.192614;0.0134462;-0.00104323;-0.0952935
0.193113;0.013992;-0.000517475;-0.0952935
0.193612;0.0144914;-9.93552e-05;-0.0952935
0.194111;0.0149117;-0.000583712;-0.0952935
0.19461;0.0154614;-0.000103495;-0.0952935
0.195109;0.0159164;-3.31184e-05;-0.0952935
0.195608;0.016327;6.2097e-05;-0.0952935
0.196107;0.0168599;0.000318765;-0.0952935
0.196606;0.0172546;0.000521615;-0.0952935
0.197105;0.0177529;0.00099769;-0.0952935
0.197604;0.0182513;0.00131645;-0.0952935
0.198103;0.0187271;0.00200366;-0.0952935
0.198602;0.0191751;0.00210715;-0.0952935
0.199101;0.0195965;0.00207404;-0.0952935
0.1996;0.0200654;0.00211129;-0.0952935
0.200099;0.0206267;0.00218581;-0.0952935
0.200598;0.0211281;0.00288544;-0.0952935
0.201097;0.021658;0.00394936;-0.0952935
0.201596;0.0221396;0.00379205;-0.0952935
0.202095;0.0226233;0.00390382;-0.0952935
0.202594;0.0230544;0.00410253;-0.0952935
0.203093;0.0235983;0.00413151;-0.0952935
0.203592;0.0240857;0.00413151;-0.0952935
0.204091;0.0244715;0.00443787;-0.0965345
0.20459;0.0249583;0.00483944;-0.0952935
0.205089;0.0254052;0.00539416;-0.0952935
0.205588;0.0258554;0.00509608;-0.0964075
0.206087;0.0263703;0.00593645;-0.0956117
0.206586;0.0268561;0.00592403;-0.096312
0.207085;0.02738;0.00607306;-0.0952935
0.207584;0.0279049;0.00629661;-0.0952935
0.208083;0.0284153;0.00627591;-0.0952935
0.208582;0.0288474;0.00647048;-0.0954526
0.209081;0.0293134;0.00662779;-0.0952935
0.20958;0.0298541;0.0066485;-0.0952935
0.210079;0.0303415;0.0073771;-0.0953253
0.210578;0.0308786;0.00800635;-0.0952935
0.211077;0.0314251;0.00823404;-0.0952935
0.211576;0.0318991;0.00826302;-0.0952935
0.212075;0.0323795;0.00826302;-0.0952935
0.212574;0.0327968;0.00831684;-0.0952935
0.213073;0.0333478;0.0083127;-0.0952935
0.213572;0.0337808;0.00856935;-0.0952935
0.214071;0.0342625;0.00900819;-0.0952935
0.21457;0.0347954;0.00924;-0.0952935
0.215069;0.0353302;0.0101922;-0.0952935
0.215568;0.0357981;0.0103867;-0.0952935
0.216067;0.0363062;0.0103039;-0.0952935
0.216566;0.0368384;0.010573;-0.0952935
0.217065;0.0372942;0.0107427;-0.0953253
0.217564;0.0378006;0.0109497;-0.0952935
0.218063;0.0382367;0.0113264;-0.0952935
0.218562;0.0387518;0.0121999;-0.0952935
0.219061;0.039101;0.0120261;-0.0954526
0.21956;0.0396498;0.0116576;-0.0953889
0.220059;0.0401168;0.012291;-0.0952935
0.220558;0.0406702;0.0118936;-0.0952935
0.221057;0.041129;0.0122455;-0.0952935
0.221556;0.0416524;0.0125767;-0.0952935
0.222055;0.042133;0.0130776;-0.0952935
0.222554;0.042567;0.0134833;-0.0952935
0.223053;0.0430951;0.0138642;-0.0952935
0.223552;0.0435323;0.0144603;-0.0952935
0.224051;0.0439979;0.0144189;-0.0952935
0.22455;0.0445348;0.0146921;-0.0952935
0.225049;0.044908;0.0148453;-0.0952935
0.225548;0.0454362;0.0150067;-0.0954208
0.226047;0.045817;0.0145762;-0.0952935
0.226546;0.0463941;0.0161824;-0.0952935
0.227045;0.046876;0.016348;-0.0952935
0.227544;0.0473131;0.0166709;-0.0952935
0.228043;0.0478093;0.0165343;-0.0952935
0.228542;0.0481883;0.0166627;-0.0947206
0.229041;0.0478409;0.0166461;-0.095198
0.22954;0.0473606;0.0163853;-0.0952935
0.230039;0.0468976;0.0160541;-0.0952935
0.230538;0.0464384;0.0155863;-0.0952935
0.231037;0.0458645;0.0156981;-0.0952935
0.231536;0.0453908;0.0157892;-0.0952935
0.232035;0.0449898;0.0150564;-0.0952935
0.232534;0.0444933;0.0145431;-0.0952935
0.233033;0.0440929;0.0146259;-0.0952935
0.233532;0.0436941;0.0143402;-0.0952935
0.234031;0.0431502;0.0139304;-0.0952935
0.23453;0.0426244;0.0136903;-0.0952935
0.235029;0.0421645;0.0135826;-0.0952935
0.235528;0.0417154;0.0131024;-0.0952935
0.236027;0.0411921;0.0131728;-0.0952935
0.236526;0.0406803;0.0127298;-0.0952935
0.237025;0.0401956;0.0126553;-0.0952935
0.237524;0.0397011;0.0124028;-0.0952935
0.238023;0.0392592;0.0122496;-0.0952935
0.238522;0.0387547;0.0117611;-0.0952935
0.239021;0.038293;0.0108752;-0.0952935
0.23952;0.0378609;0.0106103;-0.0952935
0.240019;0.0374373;0.0110781;-0.0952935
0.240518;0.0369193;0.0107676;-0.0952935
0.241017;0.0363733;0.0103536;-0.0952935
0.241516;0.0358415;0.0102335;-0.0952935
0.242015;0.0353026;0.010246;-0.0952935
