t;vds;corrente;vg
0.000499;-0.00902008;-0.0112478;-0.0749287
0.000998;-0.00942766;-0.0119515;-0.0769922
0.001497;-0.00990828;-0.0122538;-0.0776925
0.001996;-0.010457;-0.0123904;-0.0776925
0.002495;-0.0110383;-0.0124276;-0.0758464
0.002994;-0.0115387;-0.0126015;-0.0756873
0.003493;-0.0119935;-0.0131894;-0.0782336
0.003992;-0.0124633;-0.0137938;-0.0775652
0.004491;-0.0129409;-0.0138931;-0.0772787
0.00499;-0.0134067;-0.0137896;-0.0780426
0.005489;-0.0139377;-0.0142823;-0.0793476
0.005988;-0.0144371;-0.0143899;-0.0794113
0.006487;-0.0148703;-0.0144686;-0.077406
0.006986;-0.015337;-0.014601;-0.0782972
0.007485;-0.0159223;-0.0147252;-0.0778835
0.007984;-0.0163497;-0.0154373;-0.0786474
0.008483;-0.0167701;-0.015549;-0.0768331
0.008982;-0.0172606;-0.0154704;-0.072377
0.009481;-0.0177598;-0.016021;-0.0743823
0.00998;-0.0182148;-0.0165385;-0.0783609
0.010479;-0.0186195;-0.0164432;-0.077597
0.010978;-0.0191159;-0.0164432;-0.0733318
0.011477;-0.0195679;-0.0165633;-0.0733637
0.011976;-0.0200249;-0.017354;-0.0785837
0.012475;-0.0205319;-0.0179253;-0.0789338
0.012974;-0.021069;-0.0179088;-0.0746368
0.013473;-0.0214676;-0.0180702;-0.0724725
0.013972;-0.0219619;-0.0184221;-0.0743822
0.014471;-0.0224309;-0.0183848;-0.0755918
0.01497;-0.0230238;-0.0186788;-0.0757191
0.015469;-0.0234276;-0.0186498;-0.0711994
0.015968;-0.0238854;-0.0186995;-0.0728863
0.016467;-0.0244143;-0.0187533;-0.0765785
0.016966;-0.0248438;-0.018716;-0.0747324
0.017465;-0.0251783;-0.0197551;-0.0766103
0.017964;-0.0257457;-0.0200573;-0.0748279
0.018463;-0.0262539;-0.0207155;-0.0762602
0.018962;-0.0267159;-0.0208024;-0.0732365
0.019461;-0.0271137;-0.0207445;-0.0753053
0.01996;-0.0277185;-0.0211998;-0.0755599
0.020459;-0.028206;-0.0215145;-0.0740639
0.020958;-0.0286678;-0.0216056;-0.0688121
0.021457;-0.0293105;-0.0222763;-0.0719633
0.021956;-0.0298068;-0.0226116;-0.0760056
0.022455;-0.0301807;-0.0226489;-0.0755918
0.022954;-0.0306713;-0.0227234;-0.0740003
0.023453;-0.0311765;-0.0227317;-0.0750825
0.023952;-0.0315692;-0.0228683;-0.07556
0.024451;-0.0321358;-0.0230339;-0.0767057
0.02495;-0.0327228;-0.0236051;-0.075942
0.025449;-0.0332046;-0.0238866;-0.0784882
0.025948;-0.0336378;-0.0239156;-0.0754326
0.026447;-0.0341599;-0.0245903;-0.0785201
0.026946;-0.0346918;-0.0245365;-0.0768967
0.027445;-0.0351013;-0.024789;-0.0761328
0.027944;-0.0355314;-0.0248553;-0.0718995
0.028443;-0.0361859;-0.0251037;-0.0768649
0.028942;-0.0367299;-0.0259193;-0.0760692
0.029441;-0.037161;-0.0263747;-0.076483
0.02994;-0.0376041;-0.0267101;-0.0742868
0.030439;-0.03814;-0.026826;-0.0759419
0.030938;-0.0386117;-0.026855;-0.0764194
0.031437;-0.0390596;-0.026884;-0.0782336
0.031936;-0.0396025;-0.0269254;-0.07817
0.032435;-0.0400002;-0.0270537;-0.0782017
0.032934;-0.0404592;-0.0281009;-0.0769604
0.033433;-0.040986;-0.0287592;-0.0794113
0.033932;-0.041524;-0.0286639;-0.0773424
0.034431;-0.0420009;-0.0287923;-0.0785201
0.03493;-0.0425779;-0.0289289;-0.0763238
0.035429;-0.0431198;-0.0290117;-0.0768967
0.035928;-0.0436182;-0.0290365;-0.0743504
0.036427;-0.0439692;-0.0295458;-0.0770241
0.036926;-0.0445497;-0.0298521;-0.0744459
0.037425;-0.0450087;-0.0302124;-0.072918
0.037924;-0.0454195;-0.0305891;-0.0774697
0.038423;-0.0458771;-0.030912;-0.0758782
0.038922;-0.0463456;-0.0309865;-0.0764512
0.039421;-0.0468237;-0.0309865;-0.0730773
0.03992;-0.0472341;-0.0308996;-0.0734275
0.040419;-0.047833;-0.0309865;-0.0751779
0.040918;-0.0483749;-0.0309865;-0.0745733
0.041417;-0.0487827;-0.0309865;-0.0745096
0.041916;-0.0487798;-0.0313549;-0.0770877
0.042415;-0.0483254;-0.0310983;-0.0758463
0.042914;-0.0477994;-0.0309865;-0.0770241
0.043413;-0.0472884;-0.0308995;-0.0740003
0.043912;-0.0468354;-0.0309865;-0.0749233
0.044411;-0.0463259;-0.0308664;-0.0708492
0.04491;-0.0458181;-0.0297734;-0.0693851
0.045409;-0.0453868;-0.0295416;-0.0730455
0.045908;-0.044895;-0.0289661;-0.071263
0.046407;-0.0444135;-0.0291855;-0.0724088
0.046906;-0.0438372;-0.0288999;-0.0698944
0.047405;-0.0435125;-0.0288709;-0.071454
0.047904;-0.0429835;-0.0282045;-0.0683348
0.048403;-0.0424655;-0.0284032;-0.0733637
0.048902;-0.0419396;-0.0278816;-0.0708811
0.049401;-0.0415179;-0.0273973;-0.074064
0.0499;-0.0409889;-0.0271158;-0.0720906
0.050399;-0.0404574;-0.027033;-0.0746688
0.050898;-0.0399952;-0.0274014;-0.0784882
0.051397;-0.039494;-0.0269047;-0.0760056
0.051896;-0.0389413;-0.0268467;-0.0782018
0.052395;-0.0384489;-0.0266687;-0.0766103
0.052894;-0.0380631;-0.0261139;-0.0781381
0.053393;-0.0374995;-0.0253397;-0.0779472
0.053892;-0.0369755;-0.0250871;-0.0780426
0.054391;-0.0365924;-0.0258158;-0.078902
0.05489;-0.0361297;-0.0248428;-0.0774697
0.055389;-0.035571;-0.024789;-0.077597
0.055888;-0.0350766;-0.0247849;-0.0786156
0.056387;-0.0347017;-0.0244206;-0.0782017
0.056886;-0.0341825;-0.0245572;-0.0777243
0.057385;-0.0336349;-0.0243875;-0.0765784
0.057884;-0.0331719;-0.0242343;-0.0780426
0.058383;-0.0326667;-0.0235679;-0.077788
0.058882;-0.0321034;-0.0230049;-0.0763239
0.059381;-0.0316412;-0.0231995;-0.0791566
0.05988;-0.0311905;-0.0227358;-0.0783291
0.060379;-0.0306928;-0.0227607;-0.076865
0.060878;-0.0301749;-0.0227234;-0.0769923
0.061377;-0.0297852;-0.0226944;-0.076292
0.061876;-0.0292431;-0.0224419;-0.0765785
0.062375;-0.0287508;-0.0221687;-0.0781381
0.062874;-0.0282976;-0.0221687;-0.0760374
0.063373;-0.0277472;-0.0211585;-0.076483
0.063872;-0.0272193;-0.0208356;-0.0745096
0.064371;-0.0267197;-0.0207113;-0.0773742
0.06487;-0.0262491;-0.0205043;-0.0754326
0.065369;-0.0258029;-0.0203802;-0.0743505
0.065868;-0.0252464;-0.0200159;-0.0744141
0.066367;-0.0247558;-0.0193618;-0.0787747
0.066866;-0.0243394;-0.0189892;-0.077788
0.067365;-0.0238579;-0.0188816;-0.0781062
0.067864;-0.0233465;-0.0185753;-0.072759
0.068363;-0.0230229;-0.0186125;-0.0727908
0.068862;-0.0224357;-0.0184718;-0.0745414
0.069361;-0.0219413;-0.0183144;-0.0719633
0.06986;-0.0215249;-0.0180412;-0.0731091
0.070359;-0.0210768;-0.0176107;-0.0766103
0.070858;-0.0204887;-0.0168283;-0.0719313
0.071357;-0.0199784;-0.0168489;-0.0698944
0.071856;-0.0195186;-0.0167372;-0.0688758
0.072355;-0.0190715;-0.0165385;-0.0709447
0.072854;-0.0186017;-0.0166088;-0.0741276
0.073353;-0.0181289;-0.0164764;-0.0745414
0.073852;-0.017667;-0.0160914;-0.0706901
0.074351;-0.0172329;-0.015992;-0.0739685
0.07485;-0.0167533;-0.0161245;-0.0768331
0.075349;-0.0163447;-0.0155283;-0.0744458
0.075848;-0.0158946;-0.0147542;-0.0738411
0.076347;-0.0152976;-0.01451;-0.0703718
0.076846;-0.0148734;-0.0145182;-0.0715176
0.077345;-0.0144016;-0.0143568;-0.0718678
0.077844;-0.0139022;-0.014332;-0.0738094
0.078343;-0.0134156;-0.0138103;-0.0760692
0.078842;-0.0130169;-0.014067;-0.0773105
0.079341;-0.0124435;-0.0127174;-0.0750189
0.07984;-0.0118653;-0.0125642;-0.0767694
0.080339;-0.0114725;-0.0126388;-0.0769285
0.080838;-0.0109711;-0.0128126;-0.0762921
0.081337;-0.0104678;-0.0124152;-0.0754008
0.081836;-0.00991716;-0.0122041;-0.076483
0.082335;-0.00949381;-0.0115169;-0.0689395
0.082834;-0.00901215;-0.0114465;-0.0717405
0.083333;-0.00848325;-0.0110367;-0.0700217
0.083832;-0.00800653;-0.0108545;-0.0680801
0.084331;-0.00752106;-0.010631;-0.0696397
0.08483;-0.00698613;-0.010337;-0.0710403
0.085329;-0.00642261;-0.0101922;-0.0770877
0.085828;-0.00591537;-0.00931458;-0.0756873
0.086327;-0.00546534;-0.00982372;-0.0743822
0.086826;-0.00492157;-0.00879292;-0.0735548
0.087325;-0.00450213;-0.00850728;-0.0766421
0.087824;-0.00399882;-0.00830856;-0.0750825
0.088323;-0.00346692;-0.00832926;-0.0758145
0.088822;-0.0030169;-0.00825888;-0.0697353
0.089321;-0.00254714;-0.008085;-0.0664251
0.08982;-0.00195599;-0.00742263;-0.0678891
0.090319;-0.00148921;-0.00789457;-0.0689395
0.090818;-0.00108655;-0.00730672;-0.0680164
0.091317;-0.000547716;-0.00660709;-0.066425
0.091816;-0.000104609;-0.00669403;-0.0709129
0.092315;0.000450015;-0.00636285;-0.0724725
0.092814;0.000793448;-0.00624279;-0.076101
0.093313;0.00132242;-0.00607721;-0.0688121
0.093812;0.00175368;-0.00617242;-0.0717404
0.094311;0.00222541;-0.00613102;-0.0689077
0.09481;0.00271689;-0.00578742;-0.0669025
0.095309;0.00328039;-0.00571291;-0.0665205
0.095808;0.00373829;-0.00493879;-0.069194
0.096307;0.00420408;-0.00509196;-0.0705309
0.096806;0.00476268;-0.00481047;-0.0720269
0.097305;0.0052808;-0.00447098;-0.0714221
0.097804;0.00578412;-0.00418947;-0.0732364
0.098303;0.00621141;-0.00411495;-0.0698944
0.098802;0.00674632;-0.00381275;-0.0711675
0.099301;0.00724374;-0.00381689;-0.0670934
0.0998;0.00774796;-0.00345673;-0.0679528
0.100299;0.00825626;-0.00249217;-0.0689395
0.100798;0.00875852;-0.00224377;-0.0665524
0.101297;0.00915727;-0.00218581;-0.0669979
0.101796;0.00962601;-0.00210715;-0.0719633
0.102295;0.0101727;-0.0019871;-0.0737138
0.102794;0.0106198;-0.00184221;-0.0669979
0.103293;0.0110876;-0.00175113;-0.0683347
0.103792;0.0117212;-0.00144065;-0.0704672
0.104291;0.012258;-0.00133715;-0.0685575
0.10479;0.0125945;-0.00120882;-0.0718042
0.105289;0.0131127;-0.000360163;-0.0685257
0.105788;0.0137374;0;-0.0690032
0.106287;0.0141845;6.62368e-05;-0.069608
0.106786;0.0144707;6.62368e-05;-0.0729181
0.107285;0.0150429;0.000658228;-0.0699899
0.107784;0.0156104;0.00191258;-0.0646426
0.108283;0.0160249;0.00168075;-0.0679845
0.108782;0.016477;0.00199124;-0.0647062
0.109281;0.0170208;0.00201194;-0.0680484
0.10978;0.0174164;0.00209474;-0.0656611
0.110279;0.0178417;0.00240937;-0.0657566
0.110778;0.0183274;0.00269915;-0.0640378
0.111277;0.0188346;0.00313797;-0.0667114
0.111776;0.0192511;0.00371339;-0.0680165
0.112275;0.0197594;0.00413151;-0.0670298
0.112774;0.0202942;0.00413565;-0.0669024
0.113273;0.020841;0.00425157;-0.0659794
0.113772;0.0212268;0.00413151;-0.0657884
0.114271;0.0217616;0.00413979;-0.0709448
0.11477;0.0222394;0.00458691;-0.0681438
0.115269;0.0226174;0.00522029;-0.0713267
0.115768;0.0231018;0.00539415;-0.067539
0.116267;0.0235549;0.00540657;-0.0760374
0.116766;0.0240147;0.00586607;-0.0725043
0.117265;0.024508;0.00612688;-0.0714222
0.117764;0.0249958;0.0061807;-0.0768649
0.118263;0.0255631;0.00619726;-0.0715176
0.118762;0.0260734;0.00629247;-0.0719633
0.119261;0.0265559;0.00652844;-0.0714222
0.11976;0.02709;0.00626349;-0.0749234
0.120259;0.0275527;0.00671472;-0.0696716
0.120758;0.0279642;0.00741849;-0.0687485
0.121257;0.0284893;0.00750543;-0.0717723
0.121756;0.0289412;0.00787802;-0.0674116
0.122255;0.0294319;0.00826302;-0.0681756
0.122754;0.0298571;0.00826302;-0.0704037
0.123253;0.0304728;0.00831684;-0.0749233
0.123752;0.030925;0.00840791;-0.072186
0.124251;0.0315001;0.00861492;-0.0667434
0.12475;0.0320549;0.0091117;-0.067539
0.125249;0.0325107;0.00944285;-0.0681438
0.125748;0.0329507;0.00938492;-0.0728227
0.126247;0.0333902;0.00987343;-0.069958
0.126746;0.0339101;0.0100597;-0.0679527
0.127245;0.034457;0.0104074;-0.0662341
0.127744;0.0348684;0.0104116;-0.0681756
0.128243;0.0354209;0.0105896;-0.0711039
0.128742;0.0359264;0.011492;-0.0660112
0.129241;0.0363734;0.0121544;-0.064929
0.12974;0.0369035;0.0122745;-0.066425
0.130239;0.0373771;0.0124235;-0.0718041
0.130738;0.0378252;0.0126346;-0.0679527
0.131237;0.0383473;0.0126512;-0.0677936
0.131736;0.0388544;0.0126263;-0.0717086
0.132235;0.0393765;0.0126677;-0.0733955
0.132734;0.0398106;0.0130362;-0.0740003
0.133233;0.0402856;0.0137317;-0.0730773
0.133732;0.0408774;0.0142864;-0.0718359
0.134231;0.0412859;0.0144272;-0.0707219
0.13473;0.0416326;0.0147418;-0.0687167
0.135229;0.0422208;0.0145597;-0.0696716
0.135728;0.0426904;0.0149239;-0.0683347
0.136227;0.0431503;0.0152676;-0.0677618
0.136726;0.0436171;0.0153089;-0.0684938
0.137225;0.0441923;0.0156277;-0.0713904
0.137724;0.0446207;0.0161659;-0.0700534
0.138223;0.0450423;0.0162942;-0.0739048
0.138722;0.0456129;0.016348;-0.0716131
0.139221;0.046024;0.0166171;-0.069576
0.13972;0.0464731;0.0168696;-0.0705628
0.140219;0.0470073;0.0169525;-0.0694487
0.140718;0.0474342;0.0174699;-0.0661704
0.141217;0.0478261;0.0177887;-0.0665523
0.141716;0.0481872;0.0183766;-0.0657566
0.142215;0.0477432;0.0178384;-0.0688758
0.142714;0.0473102;0.0181779;-0.0680483
0.143213;0.046787;0.0170725;-0.06512
0.143712;0.0463663;0.0169525;-0.0668388
0.144211;0.0459415;0.0166088;-0.0700217
0.14471;0.045448;0.0165592;-0.0660431
0.145209;0.0449493;0.0164805;-0.0724406
0.145708;0.0445278;0.016526;-0.0658203
0.146207;0.0439981;0.016141;-0.0703718
0.146706;0.0435529;0.0158885;-0.0740003
0.147205;0.0431226;0.0152965;-0.0737774
0.147704;0.0426087;0.0149902;-0.0735546
0.148203;0.0420175;0.0152096;-0.071613
0.148702;0.0415514;0.0145721;-0.0760055
0.149201;0.0411852;0.0144686;-0.0728862
0.1497;0.040557;0.0139677;-0.0722496
0.150199;0.0400603;0.0144023;-0.0702127
0.150698;0.0396241;0.0137979;-0.0753053
0.151197;0.0392335;0.013446;-0.0719314
0.151696;0.0386403;0.0131024;-0.0743186
0.152195;0.0382377;0.0127961;-0.0720269
0.152694;0.0378658;0.0124069;-0.0747642
0.153193;0.0373535;0.0123407;-0.0728863
0.153692;0.036856;0.0124856;-0.0709766
0.154191;0.0363615;0.0121378;-0.0738094
0.15469;0.0358337;0.0115583;-0.0726954
0.155189;0.0352286;0.0109911;-0.0733319
0.155688;0.0347826;0.0107386;-0.0728227
0.156187;0.0342763;0.0103039;-0.0745414
0.156686;0.033773;0.0102418;-0.0724725
0.157185;0.033238;0.0102708;-0.0717404
0.157684;0.0328335;0.0103329;-0.0722815
0.158183;0.0324368;0.00983612;-0.0774378
0.158682;0.031814;0.00972437;-0.0741595
0.159181;0.0313857;0.00942216;-0.0738412
0.15968;0.0309121;0.00878879;-0.0775652
0.160179;0.0303456;0.00839964;-0.0772151
0.160678;0.0298128;0.0083541;-0.0733637
0.161177;0.0293814;0.00830442;-0.071836
0.161676;0.0288761;0.0081678;-0.0743187
0.162175;0.0283065;0.0078987;-0.0754962
0.162674;0.0278843;0.0075758;-0.0748915
0.163173;0.0274749;0.00697553;-0.0760374
0.163672;0.0268599;0.00620554;-0.0771832
0.164171;0.0262846;0.00616828;-0.0793476
0.16467;0.0258956;0.00619726;-0.0780744
0.165169;0.025432;0.00607306;-0.076101
0.165668;0.0248989;0.00558459;-0.077788
0.166167;0.0244529;0.00543141;-0.0776925
0.166666;0.0240424;0.00491808;-0.0784246
0.167165;0.0235005;0.00435092;-0.0761965
0.167664;0.0230387;0.00422259;-0.077788
0.168163;0.0225946;0.00415635;-0.0783291
0.168662;0.0220755;0.00422673;-0.0784882
0.169161;0.0215476;0.00413151;-0.0782017
0.16966;0.0210866;0.00355608;-0.0791885
0.170159;0.0205656;0.00299722;-0.0794113
0.170658;0.0199873;0.0025998;-0.0794113
0.171157;0.0196074;0.00285646;-0.0787747
0.171656;0.0192176;0.00230587;-0.0790293
0.172155;0.018729;0.00206576;-0.0787747
0.172654;0.0182138;0.00217339;-0.0771195
0.173153;0.0177815;0.00191672;-0.0774697
0.173652;0.0173237;0.00167661;-0.0757191
0.174151;0.0168836;0.00166006;-0.0736503
0.17465;0.0163032;0.000931454;-0.076292
0.175149;0.0158729;0.000968712;-0.0733318
0.175648;0.0153311;0.000227689;-0.0777561
0.176147;0.0148289;0.000107635;-0.0745095
0.176646;0.014368;0.000144893;-0.0722816
0.177145;0.013993;8.2796e-06;-0.0781063
0.177644;0.0134719;-9.93552e-05;-0.0762602
0.178143;0.0129251;-0.000405701;-0.0743504
0.178642;0.012555;-0.000397421;-0.0780108
0.179141;0.0121298;-0.000906615;-0.0765148
0.17964;0.0115712;-0.00153172;-0.0738412
0.180139;0.0111034;-0.00195398;-0.078902
0.180638;0.0106227;-0.00196226;-0.0762284
0.181137;0.0101086;-0.0019871;-0.0733638
0.181636;0.00956685;-0.00206576;-0.076674
0.182135;0.00907631;-0.00206576;-0.0747324
0.182634;0.00854837;-0.00220237;-0.0766739
0.183133;0.00809536;-0.00241351;-0.0728864
0.183632;0.00753881;-0.00317109;-0.0756554
0.184131;0.00717858;-0.00392452;-0.0720906
0.18463;0.00666242;-0.00341533;-0.0736501
0.185129;0.00612461;-0.00406941;-0.0749234
0.185628;0.00577917;-0.00421017;-0.0754008
0.186127;0.00523835;-0.00413151;-0.0765148
0.186626;0.00465708;-0.00419775;-0.0782654
0.187125;0.00417153;-0.00477319;-0.0771514
0.187624;0.00370376;-0.00481872;-0.0784882
0.188123;0.00315112;-0.00528237;-0.0777243
0.188622;0.00250075;-0.00600269;-0.0780426
0.189121;0.00209119;-0.00615586;-0.0787747
0.18962;0.00165698;-0.00628833;-0.0766421
0.190119;0.00114774;-0.00619726;-0.0769604
0.190618;0.000718446;-0.00638354;-0.077979
0.191117;0.000335538;-0.0067851;-0.0789656
0.191616;-0.000239811;-0.0067851;-0.0763557
0.192115;-0.000714498;-0.00738125;-0.0764193
0.192614;-0.00115761;-0.00815539;-0.0751462
0.193113;-0.00170236;-0.0082092;-0.0789975
0.193612;-0.00222739;-0.00823818;-0.0781063
0.194111;-0.00265471;-0.00831683;-0.0778834
0.19461;-0.00306624;-0.00827544;-0.0758782
0.195109;-0.00362185;-0.00844102;-0.0781699
0.195608;-0.00407875;-0.00883848;-0.0745414
0.196107;-0.00453568;-0.00891299;-0.0713903
0.196606;-0.00510021;-0.00974505;-0.0734273
0.197105;-0.00567556;-0.0100348;-0.0732365
0.197604;-0.00610778;-0.0101425;-0.0722179
0.198103;-0.0066279;-0.0102377;-0.0739685
0.198602;-0.00715197;-0.0102791;-0.0720906
0.199101;-0.00767198;-0.0102998;-0.0758146
0.1996;-0.00804504;-0.0103288;-0.0740003
0.200099;-0.00859571;-0.0108545;-0.0735865
0.200598;-0.00911286;-0.0110408;-0.0726316
0.201097;-0.00950069;-0.0118108;-0.0717723
0.201596;-0.0100484;-0.0115583;-0.0709447
0.202095;-0.0106188;-0.0122124;-0.071836
0.202594;-0.0111251;-0.0120219;-0.068844
0.203093;-0.0115959;-0.0123697;-0.0714859
0.203592;-0.0120724;-0.0123531;-0.0706264
0.204091;-0.0125709;-0.012527;-0.0680483
0.20459;-0.0130761;-0.0133094;-0.0698307
0.205089;-0.0135262;-0.0133632;-0.0729817
0.205588;-0.0140216;-0.0143071;-0.0774696
0.206087;-0.0145171;-0.0141746;-0.0747005
0.206586;-0.0149236;-0.0140504;-0.0761647
0.207085;-0.0154644;-0.0145058;-0.0772151
0.207584;-0.015945;-0.0144851;-0.075751
0.208083;-0.016474;-0.0151268;-0.0769922
0.208582;-0.0168935;-0.0148536;-0.0723452
0.209081;-0.0174283;-0.0149364;-0.0743186
0.20958;-0.017819;-0.0155573;-0.0694488
0.210079;-0.0183293;-0.0163273;-0.0728226
0.210578;-0.0187813;-0.016526;-0.0756873
0.211077;-0.0192846;-0.0166047;-0.0749871
0.211576;-0.0197387;-0.0168572;-0.0747324
0.212075;-0.020168;-0.0169732;-0.0689395
0.212574;-0.0207867;-0.0168034;-0.0697671
0.213073;-0.0211548;-0.01771;-0.073332
0.213572;-0.0216038;-0.0181613;-0.0723451
0.214071;-0.0220853;-0.018509;-0.0733001
0.21457;-0.0225562;-0.0185711;-0.0741913
0.215069;-0.0231126;-0.0186746;-0.0734592
0.215568;-0.0235687;-0.0187657;-0.0711356
0.216067;-0.0241242;-0.0190306;-0.0763239
0.216566;-0.0245929;-0.0194653;-0.0775015
0.217065;-0.0249277;-0.0196267;-0.0759101
0.217564;-0.0254684;-0.0192873;-0.0734592
0.218063;-0.0259392;-0.0205913;-0.0765785
0.218562;-0.0263812;-0.0203595;-0.0754962
0.219061;-0.026866;-0.0207652;-0.0748597
0.21956;-0.0274264;-0.0206575;-0.0709766
0.220059;-0.027827;-0.0207983;-0.0669024
0.220558;-0.0282801;-0.0214068;-0.0709129
0.221057;-0.0288938;-0.0224129;-0.0743186
0.221556;-0.0294062;-0.0225288;-0.0759101
0.222055;-0.02986;-0.0227069;-0.0756872
0.222554;-0.0303987;-0.0227234;-0.0723134
0.223053;-0.0308451;-0.0227234;-0.073141
0.223552;-0.0312091;-0.0225785;-0.0711038
0.224051;-0.0317115;-0.0228973;-0.0763556
0.22455;-0.0322216;-0.0230339;-0.0751463
0.225049;-0.0326893;-0.0235389;-0.0757827
0.225548;-0.0332105;-0.0242633;-0.0766739
0.226047;-0.0336911;-0.0240522;-0.0743185
0.226546;-0.0343099;-0.0244165;-0.0763557
0.227045;-0.0347451;-0.0246524;-0.0753053
0.227544;-0.0351358;-0.0247228;-0.0773742
0.228043;-0.0356598;-0.0248884;-0.076483
0.228542;-0.0361789;-0.0249836;-0.0761647
0.229041;-0.0366548;-0.025642;-0.0742869
0.22954;-0.0371492;-0.0260145;-0.0760692
0.230039;-0.0376781;-0.0263333;-0.0738411
0.230538;-0.0381637;-0.0264907;-0.0727908
0.231037;-0.0386097;-0.0265238;-0.0712631
0.231536;-0.039106;-0.0268426;-0.0713587
0.232035;-0.0396292;-0.026855;-0.0736501
0.232534;-0.0400131;-0.026855;-0.0724726
0.233033;-0.040476;-0.0269047;-0.0739684
0.233532;-0.0410412;-0.0270454;-0.0719315
0.234031;-0.0415358;-0.027923;-0.0757509
0.23453;-0.0419752;-0.0282334;-0.0726316
0.235029;-0.0426055;-0.0283038;-0.0733637
0.235528;-0.0432056;-0.0284569;-0.0745414
0.236027;-0.0435994;-0.0289661;-0.0766421
0.236526;-0.0441588;-0.028933;-0.0772469
0.237025;-0.0447194;-0.0289206;-0.0772787
0.237524;-0.0450463;-0.0297115;-0.0768013
0.238023;-0.0454481;-0.030349;-0.0763239
0.238522;-0.0459757;-0.0304275;-0.077597
0.239021;-0.0464187;-0.0304151;-0.0780108
0.23952;-0.0467743;-0.0306511;-0.074987
0.240019;-0.0473248;-0.0306801;-0.0733318
0.240518;-0.0478823;-0.0309865;-0.0752416
