t;vds;corrente;vg
0.000499;0.0214429;0.0036354;0.0948843
0.000998;0.0218948;0.00423087;0.0993829
0.001497;0.0223569;0.00418119;0.0996562
0.001996;0.0228778;0.00423915;0.0994553
0.002495;0.0234671;0.00462831;0.0994353
0.002994;0.0238144;0.00490568;0.0990978
0.003493;0.0243402;0.00486841;0.0996241
0.003992;0.0247687;0.0048063;0.0992505
0.004491;0.0251487;0.00533208;0.0992745
0.00499;0.0256481;0.0053693;0.0991339
0.005489;0.0262372;0.00614344;0.0992142
0.005988;0.026625;0.00619726;0.0992223
0.006487;0.027164;0.00619726;0.0992987
0.006986;0.0276839;0.00620139;0.0995879
0.007485;0.0281764;0.00620554;0.0996765
0.007984;0.0286609;0.00685547;0.0995879
0.008483;0.0291317;0.00648289;0.0997728
0.008982;0.0296963;0.00721979;0.0996563
0.009481;0.0300978;0.00779107;0.0993147
0.00998;0.0305715;0.00784075;0.0992785
0.010479;0.0311174;0.00776623;0.0989249
0.010978;0.0316147;0.00823818;0.0987601
0.011477;0.0320974;0.00826302;0.098925
0.011976;0.0326212;0.00826302;0.0991982
0.012475;0.0330525;0.00838722;0.0994835
0.012974;0.0335264;0.00909099;0.0994915
0.013473;0.0340127;0.00849898;0.0993951
0.013972;0.0346099;0.00969953;0.0991661
0.014471;0.0350411;0.00995206;0.0990454
0.01497;0.0355956;0.0100638;0.0990938
0.015469;0.036105;0.010246;0.0989732
0.015968;0.0365856;0.0102915;0.0995598
0.016467;0.0370279;0.0103288;0.0992343
0.016966;0.0375212;0.0104447;0.0988927
0.017465;0.0380285;0.0112229;0.099391
0.017964;0.038448;0.0112933;0.0992785
0.018463;0.0389303;0.0118067;0.0994192
0.018962;0.0394565;0.0123159;0.0996321
0.019461;0.039861;0.0121958;0.0994272
0.01996;0.040335;0.0121461;0.0991098
0.020459;0.0408547;0.0123945;0.0994312
0.020958;0.0413837;0.0125353;0.0993387
0.021457;0.041913;0.0129534;0.0992264
0.021956;0.0424131;0.0134502;0.0992222
0.022455;0.0429194;0.0137317;0.0994794
0.022954;0.0433734;0.013624;0.0992665
0.023453;0.0438234;0.014216;0.0993629
0.023952;0.0443276;0.0144975;0.0991499
0.024451;0.044825;0.0146549;0.0990133
0.02495;0.045224;0.0149736;0.0992264
0.025449;0.045747;0.0150026;0.0992705
0.025948;0.0461867;0.0163646;0.0996001
0.026447;0.0465857;0.0163398;0.0995276
0.026946;0.0471207;0.0164764;0.0990817
0.027445;0.0476465;0.0165923;0.0992021
0.027944;0.0481981;0.0172423;0.0992222
0.028443;0.0482376;0.0175238;0.0996281
0.028942;0.047762;0.017027;0.0990695
0.029441;0.047244;0.0170063;0.0995478
0.02994;0.0467021;0.0163397;0.098969
0.030439;0.0462609;0.0165095;0.0992945
0.030938;0.0457875;0.0160044;0.0993428
0.031437;0.045295;0.0154042;0.0994635
0.031936;0.044898;0.0151102;0.0995839
0.032435;0.0443779;0.015015;0.0991701
0.032934;0.0439043;0.0150191;0.0995761
0.033433;0.0434799;0.0146838;0.0995559
0.033932;0.0430269;0.0144023;0.0991781
0.034431;0.0424804;0.0139469;0.0992143
0.03493;0.0419603;0.0136572;0.0995037
0.035429;0.041584;0.0136944;0.0993067
0.035928;0.0410205;0.0127837;0.0989128
0.036427;0.0404751;0.0123945;0.0994354
0.036926;0.040012;0.0123945;0.0993026
0.037425;0.0395354;0.0123986;0.0993025
0.037924;0.0390163;0.0121999;0.0992826
0.038423;0.0385032;0.0119267;0.0989812
0.038922;0.0382061;0.0120178;0.0988727
0.039421;0.0376377;0.0110615;0.0995238
0.03992;0.0370703;0.0104488;0.0992104
0.040419;0.0367059;0.0103577;0.098969
0.040918;0.0361997;0.0104902;0.0996081
0.041417;0.035649;0.0100763;0.0991178
0.041916;0.0352227;0.00985683;0.0990092
0.042415;0.0346987;0.00962915;0.0993508
0.042914;0.0341795;0.00981959;0.0993388
0.043413;0.03363;0.00912413;0.0992223
0.043912;0.0331886;0.00882606;0.0995236
0.044411;0.0327121;0.00826716;0.0993589
0.04491;0.0322346;0.0083541;0.0995197
0.045409;0.031814;0.00826716;0.0996964
0.045908;0.031294;0.00820093;0.0995639
0.046407;0.0306474;0.00810984;0.099608
0.046906;0.0302518;0.00792354;0.0998693
0.047405;0.0297813;0.00725704;0.0995236
0.047904;0.029251;0.006723;0.099379
0.048403;0.0287725;0.00637113;0.0995237
0.048902;0.0283046;0.00635457;0.0995919
0.049401;0.0277995;0.00625935;0.0995116
0.0499;0.027244;0.00619726;0.0998492
0.050399;0.0268569;0.00616414;0.099608
0.050898;0.0263478;0.00607721;0.0999296
0.051397;0.0257141;0.00577087;0.0997045
0.051896;0.0252977;0.00578743;0.0996483
0.052395;0.0248012;0.00480631;0.0995478
0.052894;0.024294;0.00511264;0.0998411
0.053393;0.0238342;0.00476079;0.0996764
0.053892;0.0234334;0.00442545;0.0997165
0.054391;0.0229716;0.00426398;0.099584
0.05489;0.0224929;0.00406113;0.0995036
0.055389;0.0220844;0.00411495;0.0994714
0.055888;0.0215407;0.00394522;0.0994673
0.056387;0.0209672;0.00382931;0.0994514
0.056886;0.0204739;0.0033905;0.0993429
0.057385;0.0199873;0.00304689;0.0993308
0.057884;0.0195255;0.00258738;0.0996161
0.058383;0.0189886;0.0020492;0.0995076
0.058882;0.0186105;0.00231829;0.0993307
0.059381;0.0181447;0.00205748;0.0994796
0.05988;0.0176621;0.00175527;0.0996282
0.060379;0.017226;0.00183393;0.0992384
0.060878;0.0167563;0.00156898;0.099608
0.061377;0.0163536;0.00107635;0.0996804
0.061876;0.0158522;0.000244248;0.0997246
0.062375;0.0153292;-8.27959e-06;0.0997446
0.062874;0.0147875;7.86562e-05;0.0997407
0.063373;0.0143216;-4.1398e-06;0.0993588
0.063872;0.0138894;-0.000277367;0.0994634
0.064371;0.013385;-0.000716185;0.0994313
0.06487;0.0128975;-0.00129575;0.0995197
0.065369;0.0124129;-0.00166006;0.0997167
0.065868;0.0119581;-0.00186704;0.099588
0.066367;0.0114419;-0.00193328;0.0998734
0.066866;0.01098;-0.00214855;0.0993468
0.067365;0.0105438;-0.00215269;0.0996924
0.067864;0.0100109;-0.00220651;0.0992625
0.068363;0.00955995;-0.00293097;0.0994634
0.068862;0.00907038;-0.00357678;0.0993952
0.069361;0.00846844;-0.00400732;0.0996843
0.06986;0.00797396;-0.00392866;0.0997729
0.070359;0.00749046;-0.00415221;0.0997246
0.070858;0.00695948;-0.00416049;0.0993107
0.071357;0.0064088;-0.00418947;0.099166
0.071856;0.00596176;-0.00426399;0.0993348
0.072355;0.00548804;-0.00451653;0.09915
0.072854;0.00502125;-0.00477318;0.0996041
0.073353;0.00451397;-0.005212;0.0996242
0.073852;0.00409554;-0.005982;0.0992946
0.074351;0.00356166;-0.00603581;0.099355
0.07485;0.00303072;-0.00576673;0.0993831
0.075349;0.00255207;-0.00578743;0.0992665
0.075848;0.00197277;-0.00601924;0.0992825
0.076347;0.00146453;-0.00619726;0.0993469
0.076846;0.00106879;-0.00626349;0.0993428
0.077345;0.000655286;-0.00648705;0.0994593
0.077844;0.000150993;-0.00641252;0.0996282
0.078343;-0.000307906;-0.00694657;0.0996081
0.078842;-0.000797396;-0.00768344;0.0996644
0.079341;-0.00133624;-0.00823818;0.0990614
0.07984;-0.00176355;-0.00836652;0.0990937
0.080339;-0.00218791;-0.00830028;0.09958
0.080838;-0.00267347;-0.00841206;0.0996161
0.081337;-0.00325473;-0.00863559;0.0991097
0.081836;-0.00369487;-0.0093849;0.0997126
0.082335;-0.00411428;-0.00928972;0.0995155
0.082834;-0.00469755;-0.0100266;0.0996643
0.083333;-0.00526797;-0.0102874;0.0996523
0.083832;-0.0056647;-0.0103577;0.0992304
0.084331;-0.00611567;-0.0103288;0.0997166
0.08483;-0.00676606;-0.0108007;0.0998091
0.085329;-0.00727828;-0.0112478;0.0996323
0.085828;-0.0076779;-0.0111774;0.0996925
0.086327;-0.00817138;-0.0115831;0.0996883
0.086826;-0.00861445;-0.0116783;0.0997689
0.087325;-0.00907535;-0.0123283;0.0996402
0.087824;-0.00957568;-0.0122165;0.0999256
0.088323;-0.0100701;-0.0123697;0.0999095
0.088822;-0.0105162;-0.0123904;0.0997769
0.089321;-0.0110718;-0.0123986;0.0999216
0.08982;-0.0116136;-0.012556;0.0999818
0.090319;-0.0121366;-0.0131769;0.0996441
0.090818;-0.0125778;-0.0136158;0.0997366
0.091317;-0.0131679;-0.0142699;0.0996041
0.091816;-0.0136841;-0.0142409;0.100022
0.092315;-0.0140493;-0.0144727;0.0998733
0.092814;-0.0146454;-0.0146921;0.0997448
0.093313;-0.0150686;-0.0153007;0.0994313
0.093812;-0.0154683;-0.0152593;0.0997206
0.094311;-0.0160052;-0.0157891;0.0994835
0.09481;-0.0164612;-0.0162611;0.0997889
0.095309;-0.0169645;-0.0162404;0.0997407
0.095808;-0.0174865;-0.0164557;0.0993669
0.096307;-0.0178851;-0.0164639;0.099805
0.096806;-0.0183629;-0.0166171;0.0992906
0.097305;-0.0187596;-0.0167703;0.0994834
0.097804;-0.0193261;-0.0168862;0.0997166
0.098303;-0.0198216;-0.0178425;0.0996884
0.098802;-0.0202499;-0.0177059;0.0998453
0.099301;-0.0207936;-0.0186373;0.0995157
0.0998;-0.0212229;-0.0185794;0.0996643
0.100299;-0.021663;-0.01913;0.0992383
0.100798;-0.0221001;-0.0188692;0.0996161
0.101297;-0.0226657;-0.0193411;0.0995559
0.101796;-0.0231679;-0.0204505;0.0994434
0.102295;-0.023546;-0.0204588;0.0993108
0.102794;-0.0240236;-0.0206451;0.0996523
0.103293;-0.0245544;-0.0206037;0.0997206
0.103792;-0.0250293;-0.0206741;0.0994835
0.104291;-0.025571;-0.0207238;0.0994875
0.10479;-0.0260556;-0.0207527;0.0996201
0.105289;-0.0265667;-0.0213075;0.0997447
0.105788;-0.0269469;-0.0219079;0.0993869
0.106287;-0.0274896;-0.0223053;0.0993871
0.106786;-0.0279187;-0.0222432;0.0996162
0.107285;-0.0284133;-0.0223591;0.0996082
0.107784;-0.0289599;-0.0226613;0.0990976
0.108283;-0.029495;-0.0228352;0.099572
0.108782;-0.0299311;-0.0230546;0.0994151
0.109281;-0.0303898;-0.0229759;0.0997085
0.10978;-0.0309428;-0.0238246;0.0992063
0.110279;-0.0313738;-0.0240108;0.0996403
0.110778;-0.0318951;-0.0239943;0.098981
0.111277;-0.0324851;-0.024106;0.0991459
0.111776;-0.0329251;-0.0242385;0.0995638
0.112275;-0.0333606;-0.0243172;0.0996001
0.112774;-0.0338272;-0.0245282;0.099813
0.113273;-0.0342981;-0.0245572;0.0995638
0.113772;-0.0347234;-0.0246938;0.0997126
0.114271;-0.0352995;-0.0250623;0.0994232
0.11477;-0.0357892;-0.0259897;0.0993268
0.115269;-0.0362431;-0.0259938;0.0993228
0.115768;-0.036723;-0.0264989;0.0993911
0.116267;-0.0372992;-0.0265155;0.0994875
0.116766;-0.037764;-0.0267474;0.0996082
0.117265;-0.0382762;-0.026383;0.0994594
0.117764;-0.0388101;-0.0268467;0.0994312
0.118263;-0.0392334;-0.0269833;0.099379
0.118762;-0.0396578;-0.0274966;0.0996443
0.119261;-0.0401366;-0.0276166;0.0993469
0.11976;-0.0406297;-0.028399;0.0994915
0.120259;-0.0410896;-0.0285025;0.099572
0.120758;-0.0415487;-0.0287343;0.0994313
0.121257;-0.0421646;-0.0288502;0.0995921
0.121756;-0.042644;-0.0289537;0.0998091
0.122255;-0.0431405;-0.0288751;0.0996282
0.122754;-0.0436773;-0.0296161;0.0992827
0.123253;-0.0441933;-0.0297694;0.099588
0.123752;-0.0447115;-0.0303158;0.0994795
0.124251;-0.0451904;-0.0307961;0.0992705
0.12475;-0.0456711;-0.0306429;0.0995155
0.125249;-0.0461167;-0.0309451;0.0996643
0.125748;-0.0465264;-0.0309823;0.099813
0.126247;-0.0471148;-0.0309865;0.0998171
0.126746;-0.0475625;-0.03109;0.0992785
0.127245;-0.0479742;-0.0310113;0.0996644
0.127744;-0.0486406;-0.0320048;0.099797
0.128243;-0.0489346;-0.0323566;0.0994956
0.128742;-0.0485002;-0.0314211;0.0996122
0.129241;-0.048044;-0.0310569;0.0996443
0.12974;-0.0475214;-0.0310817;0.0994433
0.130239;-0.0469815;-0.0308954;0.0994232
0.130738;-0.0465431;-0.0307795;0.0995799
0.131237;-0.0460253;-0.0305974;0.0992463
0.131736;-0.045595;-0.0307215;0.099355
0.132235;-0.045053;-0.0306138;0.0993589
0.132734;-0.0446137;-0.0301254;0.0993429
0.133233;-0.0441581;-0.0301957;0.0992343
0.133732;-0.0435451;-0.0290117;0.0994474
0.134231;-0.0430684;-0.0289868;0.0991901
0.13473;-0.0426443;-0.0289537;0.0994514
0.135229;-0.0420589;-0.0289206;0.0992544
0.135728;-0.041582;-0.0289206;0.0994916
0.136227;-0.0411023;-0.0286308;0.0993025
0.136726;-0.0406971;-0.0284818;0.0993267
0.137225;-0.04017;-0.0286101;0.0993709
0.137724;-0.0397415;-0.0280637;0.0991459
0.138223;-0.0392256;-0.0271075;0.0994554
0.138722;-0.0387182;-0.0269957;0.0997648
0.139221;-0.0381903;-0.0269295;0.0991298
0.13972;-0.0377098;-0.0269751;0.0996281
0.140219;-0.0372084;-0.0267473;0.0996323
0.140718;-0.0367178;-0.0265486;0.099572
0.141217;-0.0361809;-0.0252858;0.0996282
0.141716;-0.0357447;-0.0250209;0.0998371
0.142215;-0.0352493;-0.0249298;0.0995438
0.142714;-0.0348201;-0.0250167;0.0998371
0.143213;-0.0343227;-0.0245945;0.0996723
0.143712;-0.0338124;-0.0244869;0.0997728
0.144211;-0.0333387;-0.0240812;0.0996805
0.14471;-0.032869;-0.0238618;0.099596
0.145209;-0.0323352;-0.0233196;0.0996202
0.145708;-0.0317755;-0.0227979;0.0996684
0.146207;-0.031363;-0.0235679;0.0994192
0.146706;-0.0307975;-0.0228269;0.0996282
0.147205;-0.0303239;-0.0227358;0.0998935
0.147704;-0.0299115;-0.0227234;0.0997728
0.148203;-0.0294367;-0.0227648;0.099789
0.148702;-0.02889;-0.022388;0.0997849
0.149201;-0.0284566;-0.0222555;0.0995117
0.1497;-0.0279563;-0.0220279;0.0993509
0.150199;-0.0274719;-0.0219491;0.0998533
0.150698;-0.0269616;-0.0209597;0.0997367
0.151197;-0.0264948;-0.0207279;0.0998532
0.151696;-0.0259885;-0.0206575;0.0997568
0.152195;-0.0254862;-0.0203015;0.0998493
0.152694;-0.0250135;-0.0202477;0.0997527
0.153193;-0.024588;-0.0195812;0.0997527
0.153692;-0.0240227;-0.0197509;0.0998009
0.154191;-0.0236289;-0.0194198;0.0992544
0.15469;-0.0231215;-0.0187947;0.099363
0.155189;-0.0226578;-0.0186332;0.0998773
0.155688;-0.0221219;-0.0185463;0.0998412
0.156187;-0.0216867;-0.0183103;0.0999256
0.156686;-0.0212831;-0.0177183;0.0998613
0.157185;-0.0208112;-0.0171636;0.0997407
0.157684;-0.0202933;-0.0170849;0.0997528
0.158183;-0.0197258;-0.0165633;0.0998773
0.158682;-0.0192314;-0.0166585;0.099572
0.159181;-0.018731;-0.0166213;0.0997728
0.15968;-0.0183914;-0.0163894;0.0996
0.160179;-0.0178289;-0.0164888;0.0997688
0.160678;-0.0173889;-0.0164846;0.0997045
0.161177;-0.0169083;-0.0163604;0.099596
0.161676;-0.0164217;-0.015578;0.0996764
0.162175;-0.0158946;-0.0149612;0.0996362
0.162674;-0.0155522;-0.0148329;0.0992906
0.163173;-0.0150421;-0.0144396;0.0994835
0.163672;-0.0146088;-0.0145762;0.0998411
0.164171;-0.0140512;-0.0141581;0.0996282
0.16467;-0.0136071;-0.0142367;0.0995197
0.165169;-0.0131057;-0.0136654;0.0998251
0.165668;-0.0125195;-0.0126512;0.0997447
0.166167;-0.0120646;-0.0124483;0.0998774
0.166666;-0.0116087;-0.0123945;0.0995357
0.167165;-0.0110008;-0.0124111;0.0996443
0.167664;-0.01053;-0.0122455;0.0997809
0.168163;-0.0100859;-0.0123697;0.0994312
0.168662;-0.00955007;-0.0119764;0.099821
0.169161;-0.00916217;-0.0111733;0.099769
0.16966;-0.00870328;-0.0112726;0.0995679
0.170159;-0.00813879;-0.0111691;0.0999136
0.170658;-0.00766808;-0.0105523;0.0995115
0.171157;-0.0072072;-0.0104364;0.099367
0.171656;-0.0066407;-0.0103867;0.0994313
0.172155;-0.00611178;-0.0103288;0.0990013
0.172654;-0.00557982;-0.0103288;0.099576
0.173153;-0.00516729;-0.00979473;0.0996001
0.173652;-0.00467386;-0.00997274;0.0994875
0.174151;-0.00405606;-0.00895854;0.0994473
0.17465;-0.00356955;-0.00897507;0.0997528
0.175149;-0.00319455;-0.00861905;0.0998773
0.175648;-0.00267049;-0.00832098;0.0997487
0.176147;-0.00221752;-0.0082713;0.10003
0.176646;-0.00180599;-0.00829613;0.0997366
0.177145;-0.00127899;-0.00754268;0.0999939
0.177644;-0.000732262;-0.00711214;0.0999497
0.178143;-0.000315801;-0.00718252;0.0999216
0.178642;0.000248693;-0.00665677;0.099793
0.179141;0.000696734;-0.00633386;0.0997326
0.17964;0.0010678;-0.00623451;0.0997568
0.180139;0.00160565;-0.0061393;0.0995318
0.180638;0.00212179;-0.00613103;0.0994956
0.181137;0.00262709;-0.00610619;0.0995157
0.181636;0.00313532;-0.00593231;0.0995075
0.182135;0.00362579;-0.00529481;0.0996844
0.182634;0.00406296;-0.00543971;0.0993791
0.183133;0.00454555;-0.00513751;0.0995318
0.183632;0.0051081;-0.00428883;0.0995558
0.184131;0.00560746;-0.00430125;0.0994594
0.18463;0.00609298;-0.00414393;0.0996201
0.185129;0.00656375;-0.00407769;0.0997728
0.185628;0.00707992;-0.00397006;0.0996283
0.186127;0.00758021;-0.0039535;0.099379
0.186626;0.00807169;-0.00322906;0.0997608
0.187125;0.00855426;-0.00271571;0.0998492
0.187624;0.0090181;-0.00271158;0.099817
0.188123;0.00954114;-0.00243834;0.0994795
0.188622;0.00999807;-0.00224377;0.0993952
0.189121;0.0105418;-0.0020906;0.0997529
0.18962;0.0109494;-0.0020492;0.0995277
0.190119;0.0114597;-0.00181737;0.0996161
0.190618;0.0120261;-0.00202436;0.0990816
0.191117;0.0124652;-0.00187532;0.0992624
0.191616;0.0129252;-0.00146963;0.0995479
0.192115;0.0134334;-0.00061269;0.0997407
0.192614;0.0139022;-0.000223549;0.0996283
0.193113;0.0143661;-0.000447099;0.0995036
0.193612;0.014824;-0.000322905;0.0994594
0.194111;0.0153124;-6.62368e-05;0.0993469
0.19461;0.015794;5.79572e-05;0.0996965
0.195109;0.0163309;3.72582e-05;0.0996524
0.195608;0.0167612;0.000136613;0.0999296
0.196107;0.017153;0.000782421;0.0994876
0.196606;0.0176286;0.00146963;0.100034
0.197105;0.018124;0.00110946;0.0998452
0.197604;0.0186442;0.0018836;0.0998291
0.198103;0.0190873;0.00175941;0.0995398
0.198602;0.0195156;0.00206576;0.0997367
0.199101;0.0199558;0.00222307;0.0993588
0.1996;0.0205201;0.00212785;0.099568
0.200099;0.0210808;0.00271985;0.0995238
0.200598;0.0215682;0.00290614;0.0996322
0.201097;0.0220893;0.00398662;0.0995478
0.201596;0.0225069;0.00342775;0.0993671
0.202095;0.0229537;0.00399904;0.0993709
0.202594;0.0233683;0.00416877;0.0994634
0.203093;0.0237473;0.00424742;0.0996322
0.203592;0.0243294;0.00428468;0.0996724
0.204091;0.0248448;0.00550178;0.099797
0.20459;0.0253145;0.00570463;0.0996442
0.205089;0.0258248;0.00586196;0.0991901
0.205588;0.0263408;0.00579157;0.0996402
0.206087;0.0268324;0.00619726;0.0996804
0.206586;0.0272883;0.00622623;0.0993509
0.207085;0.0277954;0.00638354;0.0992023
0.207584;0.0283028;0.00661951;0.0990213
0.208083;0.0286728;0.00726944;0.0991378
0.208582;0.0292492;0.00726531;0.0997246
0.209081;0.0296972;0.00804774;0.0996282
0.20958;0.0302063;0.0082299;0.0992664
0.210079;0.0307157;0.00826302;0.0999417
0.210578;0.0313057;0.0082506;0.0987964
0.211077;0.031831;0.00820092;0.0994956
0.211576;0.0323104;0.00826302;0.0994232
0.212075;0.0328274;0.00826302;0.0995518
0.212574;0.0332806;0.00832926;0.0996685
0.213073;0.0337108;0.00861492;0.099813
0.213572;0.0342299;0.00881361;0.0992985
0.214071;0.034821;0.00962089;0.099403
0.21457;0.0352157;0.00950909;0.099395
0.215069;0.0356865;0.0100514;0.0993669
0.215568;0.0361839;0.0102791;0.0995598
0.216067;0.0367092;0.0101756;0.0996803
0.216566;0.0371472;0.0103122;0.0994634
0.217065;0.0377196;0.0103991;0.099596
0.217564;0.0381904;0.0108918;0.0994474
0.218063;0.0385476;0.0108793;0.0997849
0.218562;0.0390853;0.0113223;0.0996643
0.219061;0.039643;0.0119723;0.0996965
0.21956;0.0400832;0.0119847;0.0995197
0.220059;0.0404769;0.0122289;0.0995759
0.220558;0.0410787;0.0122331;0.0994112
0.221057;0.0414953;0.0125228;0.09958
0.221556;0.0419466;0.0125477;0.0996322
0.222055;0.0424594;0.013119;0.0994111
0.222554;0.0429688;0.0136365;0.099359
0.223053;0.04341;0.0138393;0.0994473
0.223552;0.043915;0.0141746;0.0993187
0.224051;0.0443572;0.0139511;0.0991017
0.22455;0.0448774;0.014423;0.0993428
0.225049;0.0453346;0.014688;0.0993991
0.225548;0.0458328;0.0152137;0.0995077
0.226047;0.0462765;0.0159382;0.0996202
0.226546;0.0467772;0.0163729;0.0994313
0.227045;0.0472499;0.016406;0.0997247
0.227544;0.0477323;0.0165716;0.0993951
0.228043;0.0482159;0.0166751;0.0995036
0.228542;0.0480411;0.0165881;0.0993068
0.229041;0.0476122;0.0168779;0.0996724
0.22954;0.0471344;0.016526;0.0995638
0.230039;0.0466507;0.0165053;0.0994914
0.230538;0.0462205;0.0164018;0.0997648
0.231037;0.0457638;0.0160293;0.0997688
0.231536;0.0452733;0.0157726;0.0996683
0.232035;0.0448229;0.0149902;0.0997527
0.232534;0.044304;0.0145183;0.0993951
0.233033;0.0438263;0.014539;0.0995559
0.233532;0.0433941;0.0144437;0.099379
0.234031;0.0428909;0.0140836;0.099355
0.23453;0.0423875;0.0141001;0.0998934
0.235029;0.0418655;0.0128168;0.0998813
0.235528;0.0413402;0.0124607;0.0995358
0.236027;0.0408065;0.0127174;0.0997608
0.236526;0.0403626;0.0124483;0.0995277
0.237025;0.0399359;0.0122413;0.0992665
0.237524;0.0394121;0.011935;0.0998733
0.238023;0.0389393;0.0114217;0.0998814
0.238522;0.0384854;0.011343;0.0992625
0.239021;0.0380591;0.0109;0.0992144
0.23952;0.0375054;0.0105482;0.098961
0.240019;0.0370713;0.0105813;0.0993268
0.240518;0.0365785;0.0102377;0.0993388
0.241017;0.0359984;0.0102749;0.099375
0.241516;0.0355196;0.0101673;0.0993268
0.242015;0.0350214;0.00945529;0.0991298
0.242514;0.0345567;0.00914895;0.0992946
0.243013;0.0340522;0.00846173;0.0996001
0.243512;0.0335619;0.00859835;0.0994553
0.244011;0.0330998;0.00840792;0.0992182
0.24451;0.0326036;0.00817608;0.0992666
0.245009;0.0320836;0.00810571;0.0993068
0.245508;0.0316975;0.0082299;0.099596
0.246007;0.0311865;0.00811399;0.0990855
0.246506;0.0306129;0.00803119;0.0995639
0.247005;0.0301393;0.00751784;0.0989972
0.247504;0.0296668;0.00662364;0.0992263
0.248003;0.029106;0.00674784;0.0995277
0.248502;0.0285396;0.00627591;0.0994193
