t;vds;corrente;vg
0.000998;0.000349923;0.0171341;0.0916594
0.001996;0.000578263;0.00324505;0.0955269
0.002994;0.000903473;5.2604e-05;0.0955269
0.003992;0.00128602;0.00608143;0.0950802
0.00499;0.00177235;0.00261789;0.0955269
0.005988;0.00217071;0.0137894;0.0954631
0.006986;0.00245341;0.0155333;0.0955269
0.007984;0.00278258;-0.00378724;0.0955269
0.008982;0.00335293;0.0179165;0.0955269
0.00998;0.00370681;0.0015416;0.0955269
0.010978;0.00400039;0.00386412;0.0955269
0.011976;0.00430781;0.0109126;0.0955269
0.012974;0.00482775;-0.00230633;0.0955269
0.013972;0.00530716;0.0243824;0.0955269
0.01497;0.00569564;0.0123045;0.0955269
0.015968;0.00595759;0.0234962;0.0952716
0.016966;0.00640141;0.00102369;0.0955269
0.017964;0.00693025;0.0240142;0.0955269
0.018962;0.00712301;0.0070768;0.0955269
0.01996;0.00730291;0.0191547;0.0955269
0.020958;0.00780803;0.0185842;0.0955269
0.021956;0.00852962;0.011475;0.0955269
0.022954;0.00900705;0.0222055;0.0955269
0.023952;0.00922747;0.0212061;0.0955269
0.02495;0.00921164;-0.000890164;0.0955269
0.025948;0.00954773;0.0197495;0.0955269
0.026946;0.0104305;0.0146634;0.0955269
0.027944;0.0110492;0.0279592;0.0955269
0.028942;0.0112281;0.0246737;0.0955269
0.02994;0.0112044;0.0188876;0.0953673
0.030938;0.0114921;0.0164599;0.0955269
0.031936;0.0121256;0.0368325;0.0955269
0.032934;0.0128157;0.0304962;0.0955269
0.033932;0.0130618;0.0234234;0.0955269
0.03493;0.0132209;0.0262517;0.0955269
0.035928;0.0134186;0.0100467;0.0955269
0.036926;0.0140048;0.0238847;0.0955269
0.037924;0.0148746;0.0326892;0.0955269
0.038922;0.0152581;0.0235731;0.0955269
0.03992;0.0155824;0.0248194;0.0955269
0.040918;0.0157732;0.0171923;0.0953992
0.041916;0.0162782;0.0234517;0.0955269
0.042914;0.0168496;0.0360435;0.0955269
0.043912;0.0173903;0.0269638;0.0955269
0.04491;0.017416;0.0289303;0.095495
0.045908;0.0175445;0.0293147;0.0955269
0.046906;0.0178549;0.0330655;0.0955269
0.047904;0.0183896;0.0253211;0.0955269
0.048902;0.0189877;0.0416758;0.0955269
0.0499;0.0192447;0.0248396;0.0955269
0.050898;0.019308;0.0343522;0.0955269
0.051896;0.0198358;0.0315401;0.0955269
0.052894;0.0205564;0.044233;0.0955269
0.053892;0.0212385;0.0242084;0.0955269
0.05489;0.0215726;0.0342672;0.0955269
0.055888;0.0217258;0.0152501;0.0955269
0.056886;0.0222575;0.0403122;0.0955269
0.057884;0.022829;0.0486353;0.0955269
0.058882;0.0231671;0.040377;0.0955269
0.05988;0.0232076;0.0352262;0.0955269
0.060878;0.0235002;0.0267575;0.0955269
0.061876;0.0238945;0.0232333;0.0955269
0.062874;0.0243837;0.0552994;0.0952716
0.063872;0.0246032;0.0385643;0.0955269
0.06487;0.0247001;0.0449735;0.095495
0.065868;0.0251529;0.034069;0.0955269
0.066866;0.0258734;0.0379695;0.0955269
0.067864;0.0264961;0.0447469;0.0955269
0.068862;0.0267799;0.0513786;0.0955269
0.06986;0.0270617;0.0413157;0.0955269
0.070858;0.0276122;0.0412672;0.0955269
0.071856;0.0281903;0.0405712;0.0955269
0.072854;0.0286827;0.044577;0.0955269
0.073852;0.0288676;0.054567;0.0955269
0.07485;0.0291435;0.0458192;0.0955269
0.075848;0.02944;0.0460538;0.0955269
0.076846;0.0297809;0.0500028;0.0955269
0.077844;0.0301209;0.0440509;0.0955269
0.078842;0.0303017;0.0430151;0.0955269
0.07984;0.0306152;0.0479879;0.0955269
0.080838;0.0310344;0.0376053;0.0955269
0.081836;0.0314288;0.0561653;0.0955269
0.082834;0.0319021;0.0431487;0.0955269
0.083832;0.0325407;0.0654999;0.0955269
0.08483;0.0329659;0.0423961;0.0955269
0.085828;0.0334186;0.0527057;0.0955269
0.086826;0.0337507;0.0434926;0.0955269
0.087824;0.0343269;0.0510468;0.0955269
0.088822;0.0349113;0.0664507;0.0955269
0.08982;0.0352444;0.0536607;0.0955269
0.090818;0.0354509;0.0560439;0.0955269
0.091816;0.0356911;0.0581317;0.0955269
0.092814;0.0360369;0.031965;0.0955269
0.093812;0.0364273;0.066127;0.0955269
0.09481;0.0366537;0.0494081;0.0955269
0.095808;0.0369128;0.065338;0.0955269
0.096806;0.03732;0.0515485;0.0955269
0.097804;0.0378846;0.063319;0.0955269
0.098802;0.0384232;0.0541826;0.0955269
0.0998;0.0388296;0.0711807;0.0953035
0.100798;0.0392161;0.0638086;0.0955269
0.101796;0.0398722;0.0613566;0.0955269
0.102794;0.0403703;0.0647311;0.0955269
0.103792;0.0407342;0.0565375;0.0955269
0.10479;0.0409616;0.058767;0.0955269
0.105788;0.0413718;0.0676403;0.0955269
0.106786;0.0417614;0.0528029;0.0955269
0.107784;0.0422122;0.0741345;0.0955269
0.108782;0.0423801;0.0583866;0.0955269
0.10978;0.042479;0.0644721;0.0955269
0.110778;0.0429704;0.0685224;0.0955269
0.111776;0.0434388;0.0589167;0.0955269
0.112774;0.0437975;0.0700801;0.0955269
0.113772;0.0441147;0.0592161;0.0955269
0.11477;0.0445516;0.0718726;0.0955269
0.115768;0.0451883;0.0567156;0.0955269
0.116766;0.0455919;0.0787674;0.0955269
0.117764;0.0459833;0.0599161;0.0955269
0.118762;0.0464686;0.0680409;0.0955269
0.11976;0.0468669;0.0768737;0.0955269
0.120758;0.047288;0.0694287;0.0955269
0.121756;0.0475884;0.0733009;0.0955269
0.122754;0.0479096;0.0760483;0.0955269
0.123752;0.0482465;0.047389;0.0955269
0.12475;0.0483316;0.0883124;0.0955269
0.125748;0.0478009;0.0627646;0.0955269
0.126746;0.0473404;0.081798;0.0955269
0.127744;0.0468947;0.0624692;0.0955269
0.128742;0.0466317;0.0780876;0.0955269
0.12974;0.0463846;0.0686074;0.0955269
0.130738;0.0457744;0.0729651;0.0955269
0.131736;0.0454185;0.0702622;0.0955269
0.132734;0.045122;0.0599566;0.0955269
0.133732;0.0450035;0.0769425;0.0955269
0.13473;0.0446822;0.0615953;0.0955269
0.135728;0.0441237;0.069012;0.0955269
0.136726;0.0436898;0.0660987;0.0955269
0.137724;0.0434458;0.050448;0.0955269
0.138722;0.0430119;0.0699021;0.0955269
0.13972;0.0425572;0.0541624;0.0955269
0.140718;0.0419779;0.0710432;0.0955269
0.141716;0.0415537;0.0606323;0.0955269
0.142714;0.0412542;0.0590098;0.0955269
0.143712;0.0408084;0.065512;0.0955269
0.14471;0.0402953;0.0511641;0.0955269
0.145708;0.0399404;0.0674015;0.0955269
0.146706;0.0397438;0.0541382;0.0955269
0.147704;0.0394069;0.073398;0.0955269
0.148702;0.0389008;0.0565173;0.0955269
0.1497;0.0386576;0.0457585;0.0955269
0.150698;0.0383283;0.072953;0.0955269
0.151696;0.0380249;0.055441;0.0955269
0.152694;0.0375839;0.0628536;0.0955269
0.153692;0.0371827;0.0643588;0.0955269
0.15469;0.0367011;0.0357441;0.0953354
0.155688;0.0362455;0.0700114;0.0955269
0.156686;0.0358077;0.0450868;0.0953035
0.157684;0.0352128;0.0619311;0.0955269
0.158682;0.0348272;0.0407573;0.0951759
0.15968;0.0343901;0.0692345;0.0955269
0.160678;0.0340828;0.0490966;0.0955269
0.161676;0.0334651;0.0553803;0.0955269
0.162674;0.0332051;0.0561086;0.0955269
0.163672;0.0330371;0.0387099;0.0955269
0.16467;0.032769;0.0649779;0.0955269
0.165668;0.0322313;0.0469642;0.0955269
0.166666;0.0318478;0.0540127;0.0955269
0.167664;0.0316156;0.0515729;0.0955269
0.168662;0.0314091;0.0398105;0.0955269
0.16966;0.0309829;0.0505653;0.0955269
0.170658;0.0304184;0.0359626;0.0955269
0.171656;0.0297227;0.0508081;0.0955269
0.172654;0.0294657;0.0488538;0.095495
0.173652;0.0293135;0.0472393;0.0955269
0.17465;0.0288299;0.0519977;0.0952716
0.175648;0.0280352;0.0304476;0.0955269
0.176646;0.0276884;0.0487162;0.0955269
0.177644;0.0275184;0.0369256;0.0955269
0.178642;0.027298;0.0589896;0.0955269
0.17964;0.0268381;0.0426995;0.0955269
0.180638;0.026335;0.026102;0.0955269
0.181636;0.026078;0.0468388;0.0953673
0.182634;0.0257826;0.0311881;0.0955269
0.183632;0.025494;0.0519815;0.0955269
0.18463;0.0249699;0.0440388;0.0955269
0.185628;0.0244925;0.0297112;0.0954631
0.186626;0.0240853;0.043003;0.0955269
0.187624;0.0238481;0.0270488;0.0952716
0.188622;0.0233905;0.053082;0.0955269
0.18962;0.0228032;0.0242488;0.0955269
0.190618;0.0225294;0.0402516;0.0955269
0.191616;0.0222368;0.0253777;0.0955269
0.192614;0.0217268;0.0411012;0.0955269
0.193612;0.0213492;0.0408099;0.0955269
0.19461;0.0208757;0.0253292;0.0955269
0.195608;0.0205791;0.0407938;0.0955269
0.196606;0.0202064;0.028906;0.0955269
0.197604;0.0198606;0.0344048;0.0955269
0.198602;0.0193732;0.0383498;0.0955269
0.1996;0.0190588;0.0184264;0.0955269
0.200598;0.0186832;0.0371724;0.0955269
0.201596;0.0183115;0.0241315;0.0955269
0.202594;0.0178381;0.0299985;0.0955269
0.203592;0.0174733;0.0223755;0.0955269
0.20459;0.0171195;0.0316696;0.0952078
0.205588;0.016644;0.0297476;0.0955269
0.206586;0.0161873;0.0207934;0.0955269
0.207584;0.0158721;0.0352666;0.0955269
0.208582;0.0156239;0.0187865;0.0955269
0.20958;0.015013;0.0381718;0.0955269
0.210578;0.0145543;0.0230026;0.0955269
0.211576;0.0143062;0.0117259;0.0955269
0.212574;0.0140671;0.0346476;0.0955269
0.213572;0.0137587;0.0238887;0.0955269
0.21457;0.0131023;0.0279511;0.0955269
0.215568;0.0124607;0.019009;0.0955269
0.216566;0.0124588;0.0137287;0.0955269
0.217564;0.0124113;0.0298528;0.0955269
0.218562;0.0118104;0.0231725;0.0955269
0.21956;0.0110077;0.0251552;0.0955269
0.220558;0.0103879;0.00329765;0.0955269
0.221556;0.0104413;0.0319043;0.0955269
0.222554;0.0104433;0.014805;0.0955269
0.223552;0.00971576;0.0319204;0.095495
0.22455;0.00892005;0.00767967;0.0955269
0.225548;0.00836454;0.00455602;0.0955269
0.226546;0.00842582;0.0218171;0.0955269
0.227544;0.0085385;0.0256286;0.0955269
0.228542;0.00785449;0.0262396;0.0955269
0.22954;0.00691444;0.0133727;0.0955269
0.230538;0.006437;-0.00543808;0.0955269
0.231536;0.00661987;0.0227518;0.0953992
0.232534;0.00658033;0.0205182;0.0955269
0.233532;0.00603469;0.024002;0.0955269
0.23453;0.00520238;-0.00284043;0.095144
0.235528;0.00476745;0.00333406;0.0955269
0.236526;0.00474669;0.0136033;0.0955269
0.237524;0.00458458;0.0184668;0.0955269
0.238522;0.00398754;0.0149224;0.0955269
0.23952;0.00317105;-0.0058589;0.0955269
0.240518;0.00273118;0.00243986;0.0955269
0.241516;0.00250778;0.0175807;0.0955269
0.242514;0.00235951;0.00802361;0.0955269
0.243512;0.00194929;0.012171;0.0955269
0.24451;0.00127218;-0.00786985;0.0955269
0.245508;0.000850095;-0.00149305;0.0955269
0.246506;0.000617802;0.0150721;0.0955269
0.247504;0.0005407;0.00943167;0.0955269
0.248502;0.000179904;0.00161848;0.0955269
0.2495;-0.000353877;-0.00313176;0.0955269
0.250498;-0.000964759;-0.00152542;0.095495
0.251496;-0.00123066;0.00131502;0.0955269
0.252494;-0.00139771;0.0199761;0.0955269
0.253492;-0.00177037;-0.00196241;0.0955269
0.25449;-0.00257599;-0.00190576;0.0948887
0.255488;-0.00321257;-0.00810453;0.0955269
0.256486;-0.00342806;-0.00625542;0.0955269
0.257484;-0.00344684;0.00796696;0.0955269
0.258482;-0.00379281;-0.000813286;0.0955269
0.25948;-0.00458063;-0.00990508;0.0955269
0.260478;-0.00518558;-0.00460053;0.0955269
0.261476;-0.00524884;-0.00550688;0.0955269
0.262474;-0.00531507;0.00562422;0.0955269
0.263472;-0.00582315;-0.00600456;0.0955269
0.26447;-0.00650817;-0.00389649;0.0951759
0.265468;-0.00705282;-0.0133605;0.0953354
0.266466;-0.00726831;-0.00329765;0.095144
0.267464;-0.00735926;-0.00914035;0.0948249
0.268462;-0.00792664;0.000263003;0.0955269
0.26946;-0.00862846;-0.0137449;0.0953992
0.270458;-0.00891511;-0.0112322;0.0953673
0.271456;-0.00914739;-0.00913227;0.0955269
0.272454;-0.00937969;0.00909585;0.0955269
0.273452;-0.00998264;-0.0124056;0.0955269
0.27445;-0.0104097;-0.0123935;0.0955269
0.275448;-0.0107557;-0.0163385;0.0955269
0.276446;-0.0109899;-0.0185235;0.0955269
0.277444;-0.0114169;0.00170345;0.0955269
0.278442;-0.0118953;-0.00939122;0.0955269
0.27944;-0.0123926;-0.0186813;0.0953673
0.280438;-0.0127979;-0.0145501;0.0955269
0.281436;-0.0131467;-0.0290638;0.0954311
0.282434;-0.01347;-0.00806407;0.0955269
0.283432;-0.0137448;-0.00709703;0.0955269
0.28443;-0.0141856;-0.0172773;0.0955269
0.285428;-0.014673;-0.0145137;0.0955269
0.286426;-0.0150515;-0.0163102;0.0955269
0.287424;-0.0155765;-0.0174998;0.0955269
0.288422;-0.0158088;-0.0190859;0.0955269
0.28942;-0.0162337;-0.015157;0.0955269
0.290418;-0.0167429;-0.0225575;0.0955269
0.291416;-0.0171699;-0.0127293;0.0955269
0.292414;-0.0173755;-0.019268;0.0955269
0.293412;-0.0176335;-0.0204292;0.0955269
0.29441;-0.0180703;-0.0195107;0.0955269
0.295408;-0.0186565;-0.0212547;0.0955269
0.296406;-0.0190292;-0.0244673;0.0955269
0.297404;-0.0192002;-0.0175564;0.0955269
0.298402;-0.0196332;-0.0261748;0.0955269
0.2994;-0.0200374;-0.0145137;0.0955269
0.300398;-0.020672;-0.0301725;0.0955269
0.301396;-0.0208837;-0.0238483;0.0955269
0.302394;-0.0212148;-0.0394544;0.0955269
0.303392;-0.02179;-0.0117987;0.0955269
0.30439;-0.0223504;-0.0298083;0.0951121
0.305388;-0.0226698;-0.0315158;0.0955269
0.306386;-0.0229466;-0.0303505;0.0946973
0.307384;-0.0232056;-0.0425902;0.0955269
0.308382;-0.0236732;-0.0198628;0.0953354
0.30938;-0.0241485;-0.0248113;0.0955269
0.310378;-0.0245073;-0.039944;0.0950802
0.311376;-0.0247793;-0.0257824;0.0953673
0.312374;-0.0251124;-0.0386857;0.0955269
0.313372;-0.025576;-0.0228731;0.0953673
0.31437;-0.0259624;-0.0278783;0.0955269
0.315368;-0.0262954;-0.030395;0.0955269
0.316366;-0.0265999;-0.0320661;0.095144
0.317364;-0.0271329;-0.0335349;0.0955269
0.318362;-0.0276439;-0.044577;0.0955269
0.31936;-0.02805;-0.0417042;0.0950802
0.320358;-0.028308;-0.0204495;0.0953354
0.321356;-0.0288904;-0.043537;0.0953992
0.322354;-0.0293045;-0.0270124;0.0955269
0.323352;-0.0296337;-0.0400614;0.0954311
0.32435;-0.0298501;-0.0557363;0.0955269
0.325348;-0.030196;-0.0291731;0.0955269
0.326346;-0.0306686;-0.0352788;0.0955269
0.327344;-0.0311461;-0.039325;0.0953673
0.328342;-0.0315039;-0.0376094;0.0955269
0.32934;-0.0317381;-0.0442573;0.0955269
0.330338;-0.0321492;-0.0312407;0.0955269
0.331336;-0.0326356;-0.0521434;0.0955269
0.332334;-0.0330154;-0.0354851;0.0955269
0.333332;-0.0333227;-0.0578161;0.0955269
0.33433;-0.0337289;-0.0305852;0.0955269
0.335328;-0.0343496;-0.0353031;0.0955269
0.336326;-0.0346017;-0.0417649;0.0955269
0.337324;-0.034931;-0.0415909;0.095144
0.338322;-0.0353441;-0.0619028;0.0954631
0.33932;-0.0358639;-0.0411862;0.0955269
0.340318;-0.0362415;-0.0374111;0.0953354
0.341316;-0.0365242;-0.0509011;0.0955269
0.342314;-0.0368219;-0.0333771;0.0955269
0.343312;-0.0371955;-0.0645895;0.0954631
0.34431;-0.0377778;-0.0468954;0.0955269
0.345308;-0.0380624;-0.0603288;0.095495
0.346306;-0.0384538;-0.0376256;0.0955269
0.347304;-0.0386833;-0.0514272;0.0955269
0.348302;-0.0391854;-0.0471867;0.0955269
0.3493;-0.039726;-0.0523619;0.0955269
0.350298;-0.0400225;-0.0664709;0.0955269
0.351296;-0.0402587;-0.0411256;0.0955269
0.352294;-0.0406294;-0.0481781;0.0955269
0.353292;-0.0412443;-0.0450949;0.0955269
0.35429;-0.0415845;-0.0505977;0.0955269
0.355288;-0.0418672;-0.0647311;0.0955269
0.356286;-0.0421646;-0.0450302;0.0955269
0.357284;-0.0425878;-0.0543081;0.095495
0.358282;-0.0431483;-0.0511925;0.0955269
0.35928;-0.0435209;-0.0540936;0.0955269
0.360278;-0.0438746;-0.063323;0.0955269
0.361276;-0.0442768;-0.0463775;0.0955269
0.362274;-0.0447761;-0.0601103;0.0955269
0.363272;-0.0452268;-0.0474093;0.0955269
0.36427;-0.0453891;-0.0724472;0.0955269
0.365268;-0.045751;-0.0499503;0.0957183
0.366266;-0.0462748;-0.059297;0.0955269
0.367264;-0.046697;-0.066297;0.0955269
0.368262;-0.0469293;-0.0572739;0.0955269
0.36926;-0.0472742;-0.0764407;0.0955269
0.370258;-0.0478088;-0.0616034;0.0955269
0.371256;-0.048205;-0.0561046;0.0955269
0.372254;-0.0485569;-0.0680166;0.0954631
0.373252;-0.0488842;-0.0491734;0.0955269
0.37425;-0.0492231;-0.0759472;0.0955269
0.375248;-0.0490354;-0.0577594;0.0955269
0.376246;-0.0487725;-0.0734101;0.0955269
0.377244;-0.0481922;-0.0579699;0.0955269
0.378242;-0.047787;-0.0615265;0.0955269
0.37924;-0.0474817;-0.0560965;0.0955269
0.380238;-0.0472673;-0.055271;0.0955269
0.381236;-0.0468107;-0.0779378;0.0955269
0.382234;-0.0463055;-0.0446619;0.0955269
0.383232;-0.0458696;-0.0640513;0.0955269
0.38423;-0.0456647;-0.0478179;0.0955269
0.385228;-0.0453019;-0.0644236;0.0955269
0.386226;-0.0448661;-0.0722286;0.0955269
0.387224;-0.0443905;-0.0544133;0.0955269
0.388222;-0.0440634;-0.0598878;0.0955269
0.38922;-0.0437066;-0.0510185;0.0955269
0.390218;-0.0432778;-0.0606363;0.0955269
0.391216;-0.04274;-0.0589329;0.0955269
0.392214;-0.0422833;-0.0483318;0.0955269
0.393212;-0.0420589;-0.0644115;0.0955269
0.39421;-0.0416396;-0.0496954;0.0955269
0.395208;-0.0411712;-0.0600051;0.0955269
0.396206;-0.0408469;-0.0545953;0.0952716
0.397204;-0.0405028;-0.0436463;0.0955269
0.398202;-0.0402261;-0.0597543;0.0954311
0.3992;-0.0397142;-0.0385522;0.0955269
0.400198;-0.0392784;-0.053248;0.0951759
0.401196;-0.0389403;-0.0451191;0.0955269
0.402194;-0.0386476;-0.0308603;0.0950164
0.403192;-0.0381473;-0.054219;0.0954631
0.40419;-0.0377006;-0.036003;0.0955269
0.405188;-0.037408;-0.0532844;0.0955269
0.406186;-0.0372479;-0.0412712;0.0955269
0.407184;-0.0367842;-0.052552;0.0953673
0.408182;-0.0360626;-0.0442573;0.0955269
0.40918;-0.0355251;-0.0353718;0.0955269
0.410178;-0.035443;-0.0356955;0.095495
0.411176;-0.0354351;-0.0473243;0.0953354
0.412174;-0.0350951;-0.0620889;0.0949845
0.413172;-0.0341984;-0.038281;0.0955269
0.41417;-0.0335639;-0.0471989;0.0955269
0.415168;-0.0333633;-0.0340123;0.0955269
0.416166;-0.0334068;-0.0335753;0.0955269
0.417164;-0.0331112;-0.0544821;0.0955269
0.418162;-0.0322304;-0.0438203;0.0955269
0.41916;-0.0315692;-0.0382406;0.0955269
0.420158;-0.0313942;-0.0377348;0.0955269
0.421156;-0.0313191;-0.0473446;0.0955269
0.422154;-0.030971;-0.0550202;0.0955269
0.423152;-0.0303888;-0.0428978;0.0955269
0.42415;-0.0297582;-0.0288251;0.0955269
0.425148;-0.0293886;-0.0220801;0.0955269
0.426146;-0.0292048;-0.0438041;0.0955269
0.427144;-0.0291316;-0.0364643;0.0955269
0.428142;-0.0285512;-0.0308603;0.0955269
0.42914;-0.0280402;-0.0316574;0.0955269
0.430138;-0.0274107;-0.0206477;0.0955269
0.431136;-0.0270963;-0.0466284;0.0955269
0.432134;-0.0270824;-0.0432741;0.0951759
0.433132;-0.0267343;-0.0277893;0.0955269
0.43413;-0.0259733;-0.0329037;0.0955269
0.435128;-0.0253813;-0.0233951;0.0955269
0.436126;-0.0252281;-0.0365776;0.0955269
0.437124;-0.025146;-0.0392764;0.0955269
0.438122;-0.0247168;-0.0440712;0.0955269
0.43912;-0.0240566;-0.015768;0.0955269
0.440118;-0.023513;-0.0257176;0.0955269
0.441116;-0.0232699;-0.0239656;0.0955269
0.442114;-0.0231473;-0.0349753;0.0955269
0.443112;-0.0227241;-0.0368366;0.0955269
0.44411;-0.0220105;-0.0210726;0.0955269
0.445108;-0.0215232;-0.0222257;0.0955269
0.446106;-0.0213957;-0.0242205;0.0955269
0.447104;-0.0211801;-0.0186368;0.0955269
0.448102;-0.0206384;-0.0310424;0.0955269
0.4491;-0.0199772;-0.024439;0.0955269
0.450098;-0.0196658;-0.0193408;0.0955269
0.451096;-0.019483;-0.0185194;0.0955269
0.452094;-0.0192131;-0.0249246;0.0955269
0.453092;-0.0186091;-0.0177952;0.0955269
0.45409;-0.0180477;-0.0204414;0.0955269
0.455088;-0.0177729;-0.0244026;0.0955269
0.456086;-0.0175742;-0.018127;0.095495
0.457084;-0.0171224;-0.0271823;0.0955269
0.458082;-0.0165511;-0.0244511;0.0955269
0.45908;-0.0161369;-0.0111027;0.0955269
0.460078;-0.0158424;-0.022165;0.0955269
0.461076;-0.0155725;-0.0109166;0.0955269
0.462074;-0.0151583;-0.0203888;0.0955588
0.463072;-0.0147313;-0.0207691;0.0955269
0.46407;-0.0143636;-0.0119525;0.0955269
0.465068;-0.0139366;-0.0102652;0.0960693
0.466066;-0.013638;-0.0136842;0.0955269
0.467064;-0.013295;-0.00830685;0.0955269
0.468062;-0.0128354;-0.0198344;0.0955269
0.46906;-0.0123154;-0.0140727;0.0955269
0.470058;-0.0118509;-0.0112242;0.0955269
0.471056;-0.0113438;-0.0145218;0.0954631
0.472054;-0.0111372;-0.00503752;0.0955269
0.473052;-0.0107596;-0.0102288;0.0953035
0.47405;-0.010382;-0.0198425;0.0954311
0.475048;-0.00981562;-0.0126444;0.0955269
0.476046;-0.00937177;-0.0089866;0.0955269
0.477044;-0.00931247;0.00167108;0.0955269
0.478042;-0.00888843;0.0108721;0.0955269
0.47904;-0.00863636;-0.0104716;0.0955269
0.480038;-0.00814708;-0.0089866;0.0955269
0.481036;-0.00783373;-0.0131744;0.0955269
0.482034;-0.00739682;-0.0064456;0.0955269
0.483032;-0.0070291;0.000153756;0.0955269
0.48403;-0.006437;0.00193003;0.0955269
0.485028;-0.00592892;-0.011127;0.0955269
0.486026;-0.00559086;-0.00831898;0.0954631
0.487024;-0.00518261;-0.00398147;0.0955269
0.488022;-0.00460139;0.0108559;0.0955269
0.48902;-0.00428507;0.00117744;0.0955269
0.490018;-0.00401126;0.00481498;0.0952716
0.491016;-0.00382839;-0.0175402;0.0955269
0.492014;-0.00341422;0.00171559;0.0955269
0.493012;-0.00275984;0.0128345;0.0955269
0.49401;-0.0024633;0.0137975;0.0955269
0.495008;-0.00243463;0.00875192;0.0955269
0.496006;-0.00208768;-0.00988081;0.0955269
0.497004;-0.001459;-0.0217928;0.0955269
0.498002;-0.000822418;0.0232899;0.0955269
0.499;-0.000446794;0.0165085;0.0955269
0.499998;-0.000147284;0.00910799;0.0955269
