t;vds;corrente;vg
0.000499;-0.0391297;-0.0270697;0.547366
0.000998;-0.0395039;-0.0272317;0.558059
0.001497;-0.0399765;-0.0274138;0.558059
0.001996;-0.0405281;-0.0284238;0.558059
0.002495;-0.0410225;-0.0287592;0.558059
0.002994;-0.0414854;-0.0289868;0.558059
0.003493;-0.0419653;-0.0289703;0.558059
0.003992;-0.0425137;-0.0292974;0.558059
0.004491;-0.0430388;-0.0293429;0.558059
0.00499;-0.0435609;-0.0293056;0.558059
0.005489;-0.0441193;-0.0295002;0.558059
0.005988;-0.0445921;-0.0294092;0.558059
0.006487;-0.0450749;-0.030469;0.558059
0.006986;-0.0455517;-0.0305601;0.558059
0.007485;-0.0460091;-0.0308706;0.558059
0.007984;-0.046398;-0.0309865;0.558059
0.008483;-0.0468819;-0.0309865;0.558059
0.008982;-0.0474016;-0.0309948;0.558059
0.009481;-0.0478883;-0.0309989;0.558059
0.00998;-0.048368;-0.0310734;0.558059
0.010479;-0.0488624;-0.0314377;0.558139
0.010978;-0.048684;-0.0313425;0.558059
0.011477;-0.0482386;-0.0313631;0.558059
0.011976;-0.0478428;-0.0314956;0.558059
0.012475;-0.0472697;-0.0310237;0.558059
0.012974;-0.0467633;-0.0309865;0.558059
0.013473;-0.0462568;-0.0308789;0.558059
0.013972;-0.0458013;-0.0309865;0.558059
0.014471;-0.0453078;-0.030854;0.558059
0.01497;-0.0448082;-0.030676;0.558123
0.015469;-0.0443868;-0.0302867;0.558059
0.015968;-0.0439162;-0.0299349;0.558059
0.016467;-0.0434592;-0.0295664;0.558059
0.016966;-0.0429155;-0.0291152;0.558059
0.017465;-0.0423826;-0.0289993;0.558059
0.017964;-0.0418606;-0.0288171;0.558059
0.018463;-0.0414596;-0.0288875;0.558059
0.018962;-0.0409307;-0.0287178;0.558059
0.019461;-0.0404327;-0.028784;0.558075
0.01996;-0.0398688;-0.0287509;0.558059
0.020459;-0.0394693;-0.0277077;0.558059
0.020958;-0.0389492;-0.0275835;0.558059
0.021457;-0.0384469;-0.0269668;0.558059
0.021956;-0.0379606;-0.0268633;0.558059
0.022455;-0.0374867;-0.0266894;0.558059
0.022954;-0.0369696;-0.0265528;0.558059
0.023453;-0.0365056;-0.0265196;0.558059
0.023952;-0.0360892;-0.0254349;0.558059
0.024451;-0.0355295;-0.024996;0.558059
0.02495;-0.0351062;-0.0249463;0.558059
0.025449;-0.0346869;-0.0247228;0.558059
0.025948;-0.0341104;-0.0244413;0.558139
0.026447;-0.0336211;-0.0245986;0.558059
0.026946;-0.033084;-0.02375;0.558075
0.027445;-0.0326085;-0.0235679;0.558059
0.027944;-0.0319977;-0.0233154;0.558059
0.028443;-0.0315041;-0.0228352;0.558139
0.028942;-0.0310878;-0.0228476;0.558059
0.029441;-0.0305162;-0.0227979;0.558059
0.02994;-0.0300811;-0.0226033;0.558059
0.030439;-0.0296589;-0.0225661;0.558059
0.030938;-0.0292096;-0.0225578;0.558059
0.031437;-0.0286284;-0.0220858;0.558059
0.031936;-0.028195;-0.0218043;0.558059
0.032435;-0.027764;-0.0213282;0.558059
0.032934;-0.0272361;-0.0210301;0.558059
0.033433;-0.0266822;-0.0206948;0.558059
0.033932;-0.0261968;-0.0206575;0.558059
0.034431;-0.0256559;-0.0207445;0.558059
0.03493;-0.0251912;-0.0206037;0.558059
0.035429;-0.0247873;-0.0205126;0.558266
0.035928;-0.0242427;-0.0197965;0.558059
0.036427;-0.0237405;-0.0192418;0.558059
0.036926;-0.0233238;-0.0192252;0.558059
0.037425;-0.0229242;-0.0187616;0.558059
0.037924;-0.0224169;-0.0186167;0.558187
0.038423;-0.0219847;-0.0186415;0.558059
0.038922;-0.0214874;-0.0185504;0.558139
0.039421;-0.0209859;-0.0174037;0.558059
0.03992;-0.0204285;-0.0176397;0.558219
0.040419;-0.0199458;-0.017619;0.558059
0.040918;-0.0194564;-0.01682;0.558059
0.041417;-0.0190301;-0.01682;0.558059
0.041916;-0.0185464;-0.016613;0.558059
0.042415;-0.0181369;-0.0166709;0.558139
0.042914;-0.0176483;-0.016526;0.558059
0.043413;-0.0171866;-0.016435;0.558059
0.043912;-0.0167612;-0.0160334;0.558091
0.044411;-0.0162934;-0.0157974;0.558059
0.04491;-0.0157762;-0.015607;0.558123
0.045409;-0.015344;-0.0148453;0.558059
0.045908;-0.0148201;-0.0149985;0.558091
0.046407;-0.0142831;-0.0147418;0.558059
0.046906;-0.0138292;-0.0144686;0.558059
0.047405;-0.0133584;-0.0140173;0.558155
0.047904;-0.0129123;-0.0133715;0.558059
0.048403;-0.0123675;-0.0140173;0.558059
0.048902;-0.011889;-0.0133715;0.558059
0.049401;-0.0114064;-0.0135619;0.558059
0.0499;-0.0108113;-0.0127961;0.558107
0.050399;-0.0103839;-0.0126015;0.558107
0.050898;-0.00989843;-0.0128499;0.558075
0.051397;-0.00940399;-0.0125353;0.558059
0.051896;-0.00895392;-0.0123573;0.558059
0.052395;-0.00841318;-0.0122372;0.558059
0.052894;-0.00791475;-0.0120716;0.558059
0.053393;-0.00738091;-0.0113803;0.558059
0.053892;-0.00694863;-0.0110077;0.558059
0.054391;-0.00638512;-0.0107345;0.558059
0.05489;-0.00586504;-0.010424;0.558059
0.055389;-0.0054229;-0.0102046;0.558059
0.055888;-0.00492455;-0.0100349;0.558059
0.056387;-0.00443206;-0.0102377;0.558059
0.056886;-0.00394948;-0.00969951;0.558059
0.057385;-0.00349258;-0.00904548;0.558059
0.057884;-0.0029794;-0.0085404;0.558059
0.058383;-0.00250964;-0.00842034;0.558059
0.058882;-0.00199448;-0.00820506;0.558059
0.059381;-0.00149217;-0.00779107;0.558059
0.05988;-0.00100464;-0.00769172;0.558059
0.060379;-0.000545743;-0.00796909;0.558059
0.060878;-5.23047e-05;-0.00794011;0.558059
0.061377;0.000429291;-0.00779935;0.558059
0.061876;0.00086549;-0.00773311;0.558059
0.062375;0.00131255;-0.00732742;0.558059
0.062874;0.00182375;-0.007522;0.558059
0.063373;0.00224022;-0.00721978;0.558059
0.063872;0.00264979;-0.00649945;0.558059
0.064371;0.00323598;-0.00620967;0.558059
0.06487;0.0037748;-0.00614344;0.558059
0.065369;0.00424258;-0.00591576;0.558091
0.065868;0.00477946;-0.0058164;0.558059
0.066367;0.00531238;-0.00543142;0.558059
0.066866;0.00580682;-0.00460346;0.558059
0.067365;0.00625582;-0.00423086;0.558059
0.067864;0.0067858;-0.00433851;0.558059
0.068363;0.00733749;-0.00409425;0.558059
0.068862;0.00768974;-0.00402802;0.558059
0.069361;0.00825231;-0.00400732;0.558059
0.06986;0.00881379;-0.00376722;0.558075
0.070359;0.00923819;-0.00351054;0.558059
0.070858;0.00970991;-0.00279023;0.558059
0.071357;0.0102379;-0.00212371;0.558059
0.071856;0.0106859;-0.00210301;0.558059
0.072355;0.0111972;-0.00206576;0.558059
0.072854;0.0117676;-0.00206576;0.558059
0.073353;0.0123389;-0.0020906;0.558059
0.073852;0.0127307;-0.00193328;0.558059
0.074351;0.0131482;-0.00137855;0.558059
0.07485;0.0137117;-0.00130817;0.558059
0.075349;0.0141825;-0.000269087;0.558075
0.075848;0.0146621;-0.000115914;0.558059
0.076347;0.0151485;2.48388e-05;0.558059
0.076846;0.0155709;0.000190431;0.558059
0.077345;0.0159766;0.000798981;0.558059
0.077844;0.0164898;0.000919034;0.558059
0.078343;0.0170731;0.00120468;0.558059
0.078842;0.0174519;0.00150688;0.558059
0.079341;0.0179434;0.00187118;0.558059
0.07984;0.0184586;0.00161038;0.558059
0.080339;0.0188849;0.00205748;0.558059
0.080838;0.0193113;0.00209888;0.558059
0.081337;0.0198344;0.0024549;0.558059
0.081836;0.0203396;0.00295582;0.558075
0.082335;0.0208182;0.00282748;0.558059
0.082834;0.0213146;0.00354366;0.558059
0.083333;0.0217508;0.00387898;0.558059
0.083832;0.0222512;0.00392452;0.558059
0.084331;0.0227792;0.00429711;0.558059
0.08483;0.0232321;0.00421845;0.558059
0.085329;0.0236684;0.00433023;0.558059
0.085828;0.0241449;0.00495533;0.558059
0.086327;0.0246641;0.00462001;0.558059
0.086826;0.0251606;0.00535689;0.558059
0.087325;0.0256194;0.00580398;0.558059
0.087824;0.0261336;0.00601098;0.558059
0.088323;0.0266408;0.00593646;0.558059
0.088822;0.0271147;0.00623451;0.558059
0.089321;0.0275281;0.00619726;0.558059
0.08982;0.0280678;0.00661124;0.558059
0.090319;0.0285159;0.00667746;0.558059
0.090818;0.0289885;0.00695898;0.558059
0.091317;0.0294713;0.00759236;0.558059
0.091816;0.030009;0.0072943;0.558059
0.092315;0.0305538;0.0081264;0.558059
0.092814;0.0310641;0.0082713;0.558059
0.093313;0.0314971;0.0082506;0.558059
0.093812;0.0319958;0.00821334;0.558059
0.094311;0.0325374;0.00826302;0.558059
0.09481;0.0330248;0.00876396;0.558107
0.095309;0.0334455;0.00958363;0.558155
0.095808;0.0339031;0.009447;0.558059
0.096307;0.034456;0.0100969;0.558059
0.096806;0.0349178;0.0101383;0.558059
0.097305;0.03534;0.0099272;0.558059
0.097804;0.0360083;0.0102004;0.558059
0.098303;0.0364681;0.0103288;0.558059
0.098802;0.0370072;0.0103453;0.558059
0.099301;0.0375073;0.0108007;0.558059
0.0998;0.0379555;0.0114299;0.558059
0.100299;0.0384341;0.0119391;0.558059
0.100798;0.038878;0.0117073;0.558059
0.101297;0.0393982;0.011877;0.558059
0.101796;0.039859;0.0123366;0.558059
0.102295;0.0403083;0.0124732;0.558059
0.102794;0.0408803;0.0128126;0.558059
0.103293;0.041357;0.0136158;0.558059
0.103792;0.0417412;0.0141167;0.558059
0.104291;0.0422139;0.0140919;0.558059
0.10479;0.042799;0.0144479;0.558059
0.105289;0.0432204;0.0144189;0.558059
0.105788;0.0436546;0.0151599;0.558059
0.106287;0.0442052;0.0148163;0.558059
0.106786;0.0446464;0.0147418;0.558059
0.107285;0.045149;0.0158057;0.558059
0.107784;0.0456296;0.016112;0.558059
0.108283;0.0461087;0.016228;0.558059
0.108782;0.0464998;0.0164515;0.558059
0.109281;0.0469885;0.016733;0.558059
0.10978;0.0475072;0.0167744;0.558059
0.110279;0.0479406;0.0175403;0.558059
0.110778;0.0482534;0.0176604;0.558059
0.111277;0.0477856;0.0166461;0.558059
0.111776;0.0473704;0.0166337;0.558059
0.112275;0.0468206;0.016526;0.558059
0.112774;0.0463821;0.0164639;0.558059
0.113273;0.0459237;0.0160955;0.558059
0.113772;0.0454144;0.0155697;0.558059
0.114271;0.0449701;0.0149322;0.558059
0.11477;0.044516;0.01451;0.558059
0.115269;0.0440327;0.0148329;0.558059
0.115768;0.0435244;0.014038;0.558059
0.116267;0.0430674;0.0141043;0.558059
0.116766;0.0425406;0.0136572;0.558059
0.117265;0.0420126;0.0133715;0.558059
0.117764;0.0415594;0.0127423;0.558059
0.118263;0.0411349;0.0126139;0.558059
0.118762;0.0405215;0.01244;0.558059
0.119261;0.0400376;0.0123738;0.558059
0.11976;0.0396695;0.0123986;0.558059
0.120259;0.0391496;0.0122124;0.558059
0.120758;0.0386403;0.0119309;0.558059
0.121257;0.0382505;0.0119557;0.558059
0.121756;0.0377474;0.0115127;0.558059
0.122255;0.0371384;0.0104778;0.558059
0.122754;0.0366131;0.0105606;0.558059
0.123253;0.0361711;0.0103702;0.558059
0.123752;0.0356934;0.0104612;0.558059
0.124251;0.0352345;0.0105482;0.558059
0.12475;0.0347767;0.0099355;0.558059
0.125249;0.0342052;0.00987753;0.558059
0.125748;0.0337266;0.00903305;0.558059
0.126247;0.0332854;0.00868944;0.558059
0.126746;0.0328216;0.00840792;0.558059
0.127245;0.0323027;0.00837066;0.558059
0.127744;0.0318812;0.00825888;0.558059
0.128243;0.0313887;0.00822576;0.558059
0.128742;0.0308014;0.00816366;0.558155
0.129241;0.0302598;0.00800635;0.558059
0.12974;0.0297586;0.0075758;0.558107
0.130239;0.0292806;0.0068058;0.558059
0.130738;0.0287893;0.00658225;0.558059
0.131237;0.0283342;0.0065657;0.558059
0.131736;0.0278518;0.00627177;0.558059
0.132235;0.0273101;0.00618484;0.558059
0.132734;0.0267898;0.00593231;0.558059
0.133233;0.0262896;0.00593645;0.558059
0.133732;0.0257713;0.00572121;0.558059
0.134231;0.0254201;0.00534035;0.558059
0.13473;0.024891;0.00518306;0.558059
0.135229;0.0243088;0.00431367;0.558059
0.135728;0.0238233;0.00449581;0.558059
0.136227;0.0234186;0.00429297;0.558059
0.136726;0.0229321;0.00413151;0.558059
0.137225;0.0225581;0.00413565;0.558059
0.137724;0.0220873;0.00403629;0.558059
0.138223;0.0216374;0.00351882;0.558059
0.138722;0.0210718;0.00331598;0.558059
0.139221;0.0205459;0.00250044;0.558059
0.13972;0.020087;0.00213199;0.558059
0.140219;0.0195857;0.00204506;0.558059
0.140718;0.0191583;0.00194984;0.558059
0.141217;0.018727;0.00190016;0.558059
0.141716;0.0181526;0.00150688;0.558059
0.142215;0.0176444;0.00165178;0.558059
0.142714;0.0171806;0.000832099;0.558059
0.143213;0.0167928;0.00108049;0.558059
0.143712;0.0162963;0.000956292;0.558059
0.144211;0.0158601;0.000182151;0.558059
0.14471;0.0153933;0;0.558059
0.145209;0.0149059;-4.96776e-05;0.558059
0.145708;0.0143542;-5.38174e-05;0.558059
0.146207;0.0139229;-0.000480217;0.558059
0.146706;0.0134354;-0.00118398;0.558059
0.147205;0.012933;-0.00172215;0.558059
0.147704;0.0124435;-0.00197882;0.558059
0.148203;0.0120094;-0.00195398;0.558059
0.148702;0.0114488;-0.00216097;0.558059
0.149201;0.0109267;-0.00242179;0.558059
0.1497;0.0104885;-0.00264533;0.558059
0.150199;0.0100227;-0.00331183;0.558059
0.150698;0.00954218;-0.00340291;0.558059
0.151197;0.00902103;-0.00296409;0.558059
0.151696;0.00849608;-0.00327044;0.558059
0.152195;0.00796508;-0.00368027;0.558059
0.152694;0.00746974;-0.00412737;0.558059
0.153193;0.00710061;-0.00411909;0.558059
0.153692;0.00661405;-0.00415221;0.558059
0.154191;0.0060269;-0.00421017;0.558059
0.15469;0.00560251;-0.00434679;0.558059
0.155189;0.00509033;-0.00443373;0.558059
0.155688;0.00448634;-0.00593645;0.558059
0.156187;0.00405705;-0.00601925;0.558059
0.156686;0.0036258;-0.00618898;0.558059
0.157185;0.00311559;-0.00623037;0.558059
0.157684;0.00259549;-0.00619726;0.558059
0.158183;0.00205862;-0.00647875;0.558059
0.158682;0.00157112;-0.00623865;0.558059
0.159181;0.00111714;-0.00690101;0.558059
0.15968;0.000683905;-0.00676854;0.558059
0.160179;0.000216126;-0.00761721;0.558059
0.160678;-0.000342446;-0.00788215;0.558059
0.161177;-0.000816146;-0.00820092;0.558107
0.161676;-0.00130268;-0.0082092;0.558075
0.162175;-0.00181881;-0.0083127;0.558059
0.162674;-0.00223528;-0.00837064;0.558059
0.163173;-0.00274847;-0.00946357;0.558059
0.163672;-0.00315604;-0.00965811;0.558059
0.164171;-0.00357941;-0.0100141;0.558059
0.16467;-0.00410836;-0.0100183;0.558059
0.165169;-0.00467978;-0.0102708;0.558059
0.165668;-0.00521961;-0.0103329;0.558059
0.166167;-0.00565385;-0.0104737;0.558059
0.166666;-0.00610877;-0.0108048;0.558059
0.167165;-0.0067029;-0.011223;0.558059
0.167664;-0.00719341;-0.012262;0.558059
0.168163;-0.00770849;-0.0123117;0.558075
0.168662;-0.0082306;-0.0121171;0.558059
0.169161;-0.00873385;-0.0124359;0.558059
0.16966;-0.00913654;-0.0123448;0.558059
0.170159;-0.00961022;-0.0123531;0.558059
0.170658;-0.0101106;-0.0124649;0.558075
0.171157;-0.0105024;-0.0127505;0.558091
0.171656;-0.01106;-0.0126677;0.558059
0.172155;-0.0116304;-0.0127381;0.558059
0.172654;-0.0121336;-0.0136944;0.558059
0.173153;-0.0125481;-0.0136986;0.558059
0.173652;-0.0131087;-0.0139469;0.558059
0.174151;-0.0136219;-0.0144189;0.558059
0.17465;-0.0141302;-0.0144562;0.558059
0.175149;-0.0145911;-0.0147501;0.558059
0.175648;-0.015115;-0.0151268;0.558059
0.176147;-0.015495;-0.0145679;0.558139
0.176646;-0.0159361;-0.0150067;0.558059
0.177145;-0.0164651;-0.0160251;0.558059
0.177644;-0.016853;-0.0161286;0.558059
0.178143;-0.0173277;-0.0161576;0.558059
0.178642;-0.0178545;-0.0163398;0.558187
0.179141;-0.0182681;-0.016435;0.558059
0.17964;-0.0186886;-0.0165633;0.558059
0.180139;-0.0192639;-0.0167413;0.558059
0.180638;-0.019712;-0.01694;0.558091
0.181137;-0.0202183;-0.0175155;0.558107
0.181636;-0.0207126;-0.0184345;0.558059
0.182135;-0.0211992;-0.0185918;0.558075
0.182634;-0.0216817;-0.0185794;0.558155
0.183133;-0.0220972;-0.0186746;0.558059
0.183632;-0.0225759;-0.0187243;0.558171
0.184131;-0.0231146;-0.0187988;0.558059
0.18463;-0.0235579;-0.0189064;0.558059
0.185129;-0.0240906;-0.0195605;0.558091
0.185628;-0.0245376;-0.0197923;0.558075
0.186127;-0.024976;-0.0204837;0.558059
0.186626;-0.025418;-0.0206865;0.558059
0.187125;-0.0259294;-0.0207362;0.558059
0.187624;-0.0264996;-0.021055;0.558059
0.188123;-0.0269232;-0.0212579;0.558059
0.188622;-0.0275695;-0.0222432;0.558059
0.189121;-0.028046;-0.0219202;0.558059
0.18962;-0.0284202;-0.0223674;0.558059
0.190119;-0.0288326;-0.0226489;0.558059
0.190618;-0.0294773;-0.0227441;0.558059
0.191117;-0.0298867;-0.022831;0.558059
0.191616;-0.0303099;-0.0230546;0.558059
0.192115;-0.0308766;-0.024135;0.558059
0.192614;-0.0312485;-0.0243999;0.558059
0.193113;-0.0317075;-0.0242426;0.558059
0.193612;-0.0322996;-0.0247559;0.558059
0.194111;-0.0328718;-0.0248263;0.558059
0.19461;-0.0333566;-0.0250498;0.558059
0.195109;-0.0337917;-0.0249836;0.558059
0.195608;-0.0343494;-0.0254598;0.558059
0.196107;-0.0347441;-0.0256709;0.558059
0.196606;-0.0352226;-0.0260063;0.558059
0.197105;-0.0357309;-0.0264824;0.558059
0.197604;-0.0362204;-0.0267763;0.558059
0.198103;-0.0367535;-0.0267598;0.558059
0.198602;-0.0372775;-0.0267888;0.558059
0.199101;-0.037687;-0.0268923;0.558059
0.1996;-0.0381509;-0.0270537;0.558059
0.200099;-0.0386571;-0.0268384;0.558059
0.200598;-0.0392522;-0.026913;0.558059
0.201097;-0.0396499;-0.0271075;0.558059
0.201596;-0.0402047;-0.0275877;0.558059
0.202095;-0.0407135;-0.0282914;0.558059
0.202594;-0.0411557;-0.0286888;0.558059
0.203093;-0.0415082;-0.028904;0.558059
0.203592;-0.0421182;-0.0290324;0.558059
0.204091;-0.0427279;-0.0289951;0.558059
0.20459;-0.043102;-0.0289206;0.558059
0.205089;-0.0436458;-0.0293511;0.558059
0.205588;-0.044146;-0.0299474;0.558059
0.206087;-0.0445694;-0.0294174;0.558123
0.206586;-0.0450473;-0.0293843;0.558155
0.207085;-0.0455931;-0.0297942;0.558059
0.207584;-0.0461334;-0.0302289;0.558059
0.208083;-0.0464968;-0.0307878;0.558059
0.208582;-0.0470082;-0.0309534;0.558059
0.209081;-0.0474925;-0.0309699;0.558059
0.20958;-0.0479278;-0.0309865;0.558059
0.210079;-0.0484411;-0.0314418;0.558059
0.210578;-0.0489255;-0.0318061;0.558107
0.211077;-0.0486711;-0.0311438;0.558091
0.211576;-0.0481319;-0.0310775;0.558059
0.212075;-0.0476959;-0.031239;0.558059
0.212574;-0.0471877;-0.0309865;0.558139
0.213073;-0.0467209;-0.0309989;0.558235
0.213572;-0.046247;-0.0309865;0.558059
0.214071;-0.0457598;-0.0303654;0.558107
0.21457;-0.0452752;-0.0306967;0.558059
0.215069;-0.0448062;-0.0301958;0.558091
0.215568;-0.0442981;-0.0302081;0.558107
0.216067;-0.043771;-0.0296202;0.558059
0.216566;-0.0433181;-0.0295457;0.558059
0.217065;-0.0428562;-0.0295002;0.558059
0.217564;-0.04227;-0.028991;0.558075
0.218063;-0.0416937;-0.0292021;0.558059
0.218562;-0.0412573;-0.0290531;0.558059
0.219061;-0.0407769;-0.0287343;0.558075
0.21956;-0.0402658;-0.0287799;0.558059
0.220059;-0.0398431;-0.028813;0.558059
0.220558;-0.0394032;-0.0282541;0.558059
0.221057;-0.0388683;-0.0275256;0.558059
0.221556;-0.0383926;-0.0271282;0.558059
0.222055;-0.0379427;-0.0268633;0.558075
0.222554;-0.037386;-0.0270247;0.558059
0.223053;-0.0368768;-0.0267805;0.558059
0.223552;-0.0363911;-0.0267639;0.558059
0.224051;-0.0359264;-0.0269212;0.558059
0.22455;-0.0353154;-0.0254473;0.558059
0.225049;-0.0349217;-0.0253852;0.558059
0.225548;-0.0345083;-0.0249298;0.558059
0.226047;-0.0339338;-0.0247269;0.558059
0.226546;-0.0335284;-0.0246235;0.558059
0.227045;-0.0330613;-0.0242509;0.558059
0.227544;-0.0325651;-0.0242261;0.558059
0.228043;-0.0320175;-0.0238328;0.558059
0.228542;-0.0314962;-0.023187;0.558059
0.229041;-0.0309911;-0.0234809;0.558059
0.22954;-0.0304343;-0.0231208;0.558059
0.230039;-0.0300426;-0.022889;0.558059
0.230538;-0.029572;-0.0227234;0.558059
0.231037;-0.0289699;-0.0227027;0.558059
0.231536;-0.0285455;-0.0227027;0.558059
0.232035;-0.0280698;-0.0224916;0.558059
0.232534;-0.0275558;-0.0221438;0.558091
0.233033;-0.0270801;-0.0223632;0.558059
0.233532;-0.0265401;-0.0215848;0.558059
0.234031;-0.0261711;-0.0209473;0.558059
0.23453;-0.0256411;-0.0213117;0.558059
0.235029;-0.02513;-0.020761;0.558075
0.235528;-0.024659;-0.020583;0.558059
0.236027;-0.0241845;-0.0203967;0.558059
0.236526;-0.0236615;-0.0206244;0.558059
0.237025;-0.023231;-0.0195233;0.558059
0.237524;-0.0228098;-0.0198006;0.558059
0.238023;-0.0222778;-0.0190224;0.558059
0.238522;-0.0217212;-0.0189437;0.558059
0.239021;-0.0213453;-0.0184511;0.558059
0.23952;-0.0209208;-0.0183186;0.558091
0.240019;-0.0203624;-0.0175196;0.558059
0.240518;-0.0199419;-0.0174989;0.558059
0.241017;-0.0194238;-0.0172795;0.558091
0.241516;-0.0189067;-0.0169483;0.558059
0.242015;-0.0184437;-0.0167289;0.558059
0.242514;-0.0180066;-0.0167579;0.558059
0.243013;-0.0174875;-0.0165757;0.558059
0.243512;-0.0171343;-0.016526;0.558059
0.244011;-0.0166704;-0.0163356;0.558059
0.24451;-0.016174;-0.0164515;0.558059
0.245009;-0.0156735;-0.0162445;0.558059
0.245508;-0.0152749;-0.0161866;0.558059
0.246007;-0.0148003;-0.0148701;0.558059
0.246506;-0.0142614;-0.0147915;0.558059
0.247005;-0.0138045;-0.0145928;0.558059
0.247504;-0.0132794;-0.0144148;0.558059
0.248003;-0.0128038;-0.0144893;0.558059
0.248502;-0.0122846;-0.0144437;0.558059
0.249001;-0.0117439;-0.0140256;0.558059
0.2495;-0.0112534;-0.0128085;0.558059
0.249999;-0.0108113;-0.0131687;0.558059
0.250498;-0.0102744;-0.0124028;0.558059
0.250997;-0.00974252;-0.0124483;0.558059
0.251496;-0.0092589;-0.0121875;0.558059
0.251995;-0.00884438;-0.0123904;0.558059
