t;vds;corrente;vg
0;-0.00214896;0.0171478;0.379506
2e-05;-0.00225374;0.0188391;0.391382
4e-05;-0.00197499;0.0215217;0.391382
6e-05;-0.00209459;0.0146634;0.391382
8e-05;-0.00181387;0.0189685;0.391382
0.0001;-0.000551573;0.0203078;0.391382
0.00012;-0.000698857;0.021546;0.391382
0.00014;-0.000376612;0.0228043;0.391382
0.00016;0.00112786;0.0297921;0.391382
0.00018;0.00310482;0.0329158;0.391382
0.0002;0.00517273;0.0380343;0.391382
0.00022;0.00711905;0.0403163;0.391382
0.00024;0.00883307;0.0474417;0.391382
0.00026;0.0107388;0.0515162;0.391382
0.00028;0.0127909;0.0562381;0.391382
0.0003;0.0149369;0.064282;0.391382
0.00032;0.0168259;0.0668512;0.391382
0.00034;0.018704;0.0709663;0.391382
0.00036;0.0204704;0.0750772;0.391382
0.00038;0.0225927;0.0843915;0.391382
0.0004;0.024449;0.0876326;0.391382
0.00042;0.0263154;0.0912013;0.391382
0.00044;0.0283971;0.0934348;0.391382
0.00046;0.0302988;0.102434;0.391382
0.00048;0.0323302;0.105428;0.391382
0.0005;0.033979;0.107204;0.391382
0.00052;0.0360586;0.113828;0.391382
0.00054;0.0381573;0.114807;0.391382
0.00056;0.0399483;0.121277;0.391382
0.00058;0.0419146;0.126581;0.391382
0.0006;0.0438429;0.133755;0.391382
0.00062;0.0456719;0.137203;0.391382
0.00064;0.0470845;0.141483;0.391382
0.00066;0.0457872;0.138675;0.391382
0.00068;0.0438846;0.132371;0.391382
0.0007;0.0418383;0.129543;0.391382
0.00072;0.0401709;0.129062;0.391382
0.00074;0.0379151;0.116964;0.391382
0.00076;0.0360322;0.117955;0.391382
0.00078;0.0342537;0.112302;0.391382
0.0008;0.0320861;0.103607;0.391382
0.00082;0.0301082;0.101017;0.391382
0.00084;0.0283704;0.0969105;0.391382
0.00086;0.0263005;0.0904324;0.391382
0.00088;0.0245648;0.0882233;0.391382
0.0009;0.0225828;0.0851765;0.391382
0.00092;0.0205722;0.0802644;0.391382
0.00094;0.0187179;0.072346;0.391382
0.00096;0.0168457;0.0669808;0.391382
0.00098;0.0146819;0.0630721;0.391382
0.001;0.0129244;0.0564323;0.391382
0.00102;0.0107359;0.0519613;0.391382
0.00104;0.00892896;0.0511722;0.391382
0.00106;0.00710423;0.0416798;0.391382
0.00108;0.00524785;0.0406076;0.391382
0.0011;0.00326002;0.0321753;0.391382
0.00112;0.00149261;0.0254748;0.391382
0.00114;-0.000601986;0.0245644;0.391382
0.00116;-0.00255721;0.0172773;0.391382
0.00118;-0.00448178;0.0114871;0.391382
0.0012;-0.00645578;0.00497682;0.391382
0.00122;-0.00831314;0.00249246;0.391382
0.00124;-0.0101329;-0.00595196;0.391382
0.00126;-0.0122028;-0.0102611;0.391382
0.00128;-0.0143379;-0.0150397;0.391382
0.0013;-0.0160964;-0.0213234;0.391382
0.00132;-0.0179913;-0.0286713;0.391382
0.00134;-0.0198209;-0.0358007;0.391382
0.00136;-0.021707;-0.0433509;0.391382
0.00138;-0.0238243;-0.0466162;0.391382
0.0014;-0.0256273;-0.0523416;0.391382
0.00142;-0.0276418;-0.0582693;0.391382
0.00144;-0.0294715;-0.0663576;0.391382
0.00146;-0.0314475;-0.0706466;0.391382
0.00148;-0.0332159;-0.0767078;0.391382
0.0015;-0.035267;-0.0777679;0.391382
0.00152;-0.0371343;-0.08934;0.391382
0.00154;-0.0390865;-0.0953203;0.391382
0.00156;-0.0409568;-0.102442;0.391382
0.00158;-0.0430068;-0.107516;0.391382
0.0016;-0.044896;-0.114843;0.391382
0.00162;-0.0467611;-0.120071;0.391382
0.00164;-0.0482625;-0.125889;0.391382
0.00166;-0.0471428;-0.122555;0.391382
0.00168;-0.0449837;-0.117441;0.391382
0.0017;-0.0432719;-0.108139;0.391382
0.00172;-0.0413283;-0.102705;0.391382
0.00174;-0.0395403;-0.097311;0.391382
0.00176;-0.0376195;-0.0949238;0.391382
0.00178;-0.0355874;-0.0843066;0.391382
0.0018;-0.0336301;-0.0767685;0.391382
0.00182;-0.0318538;-0.068834;0.391382
0.00184;-0.0296742;-0.0674258;0.391382
0.00186;-0.0280442;-0.057626;0.391382
0.00188;-0.0259615;-0.0561369;0.391382
0.0019;-0.0240408;-0.046677;0.391382
0.00192;-0.0223703;-0.0463492;0.391382
0.00194;-0.0205376;-0.0342146;0.391382
0.00196;-0.0177056;-0.0297962;0.391382
0.00198;-0.017333;-0.028817;0.391382
0.002;-0.0140849;-0.0181634;0.391382
0.00202;-0.0122552;-0.0150478;0.391382
0.00204;-0.0113468;-0.00799528;0.391382
0.00206;-0.00830029;0.00146877;0.391382
0.00208;-0.00659812;4.04631e-06;0.391382
0.0021;-0.00560173;0.0124137;0.391382
0.00212;-0.00218257;0.0169171;0.391382
0.00214;-0.00116641;0.0190252;0.391382
0.00216;0.000402312;0.0271985;0.391382
0.00218;0.0034162;0.0312366;0.391382
0.0022;0.00422972;0.0346193;0.391382
0.00222;0.00633716;0.0452527;0.391478
0.00224;0.00919979;0.0494162;0.391382
0.00226;0.0103721;0.0514029;0.391382
0.00228;0.0123145;0.0586577;0.391382
0.0023;0.0146384;0.0622386;0.391382
0.00232;0.0160223;0.0733171;0.391382
0.00234;0.0183382;0.0709258;0.391382
0.00236;0.0202925;0.0810291;0.391382
0.00238;0.0220194;0.0848893;0.391382
0.0024;0.0241297;0.0870418;0.391382
0.00242;0.0258764;0.0949723;0.391382
0.00244;0.0277169;0.102523;0.391382
0.00246;0.0299667;0.103267;0.391382
0.00248;0.0316926;0.107536;0.391382
0.0025;0.0335115;0.11091;0.391382
0.00252;0.0357069;0.117987;0.391382
0.00254;0.0375554;0.122268;0.391382
0.00256;0.039634;0.1261;0.391382
0.00258;0.0415973;0.132918;0.391382
0.0026;0.0434654;0.135082;0.391382
0.00262;0.0453872;0.143956;0.391382
0.00264;0.0469647;0.142592;0.391382
0.00266;0.0461629;0.143126;0.391382
0.00268;0.0441564;0.137672;0.391382
0.0027;0.0421843;0.131906;0.391382
0.00272;0.0401936;0.12892;0.391382
0.00274;0.0385784;0.122944;0.391382
0.00276;0.0363147;0.119027;0.391382
0.00278;0.0343812;0.1149;0.391382
0.0028;0.0326099;0.112553;0.391382
0.00282;0.0306537;0.105339;0.391382
0.00284;0.0284949;0.102547;0.391382
0.00286;0.0269637;0.0979543;0.391382
0.00288;0.024793;0.090914;0.391382
0.0029;0.0228428;0.0863054;0.391382
0.00292;0.0212058;0.0805679;0.391382
0.00294;0.018957;0.0729934;0.391382
0.00296;0.0170572;0.0697969;0.391382
0.00298;0.015277;0.0642091;0.391382
0.003;0.0130044;0.0621739;0.391382
0.00302;0.0113784;0.0580427;0.391382
0.00304;0.00943405;0.0538954;0.391382
0.00306;0.00722779;0.0475145;0.391382
0.00308;0.00579547;0.0413116;0.391382
0.0031;0.00363761;0.0360273;0.391382
0.00312;0.00162309;0.0323696;0.391382
0.00314;7.61131e-05;0.0226789;0.391382
0.00316;-0.00208669;0.0220517;0.391382
0.00318;-0.00415756;0.0137975;0.391382
0.0032;-0.00589432;0.0059479;0.391382
0.00322;-0.00795828;-0.00199478;0.391382
0.00324;-0.00998167;-0.00498492;0.391382
0.00326;-0.0117817;-0.0125392;0.391382
0.00328;-0.0137844;-0.0154443;0.391382
0.0033;-0.0156674;-0.0239737;0.391382
0.00332;-0.0175574;-0.0295494;0.391382
0.00334;-0.0195748;-0.0378157;0.391382
0.00336;-0.0214055;-0.0386088;0.391382
0.00338;-0.0233844;-0.0480729;0.391382
0.0034;-0.0253288;-0.0491249;0.391382
0.00342;-0.0272949;-0.0599687;0.391382
0.00344;-0.0291345;-0.0625259;0.391382
0.00346;-0.0310482;-0.0701287;0.391382
0.00348;-0.0329619;-0.0810251;0.391382
0.0035;-0.0349142;-0.0840921;0.391382
0.00352;-0.036816;-0.0877539;0.391382
0.00354;-0.0387524;-0.0958626;0.391382
0.00356;-0.0407125;-0.105569;0.391382
0.00358;-0.0425363;-0.111841;0.391382
0.0036;-0.0444053;-0.113528;0.391382
0.00362;-0.0461839;-0.123219;0.391382
0.00364;-0.0482298;-0.128989;0.391382
0.00366;-0.0476122;-0.125036;0.391382
0.00368;-0.0456251;-0.117457;0.391382
0.0037;-0.0436415;-0.115507;0.391382
0.00372;-0.0416534;-0.106213;0.391382
0.00374;-0.0399208;-0.0972585;0.391382
0.00376;-0.0379654;-0.0941793;0.391382
0.00378;-0.0360578;-0.0865765;0.391382
0.0038;-0.034232;-0.0802846;0.391382
0.00382;-0.0322333;-0.0733778;0.391382
0.00384;-0.0303384;-0.066997;0.391382
0.00386;-0.0284504;-0.0653339;0.391382
0.00388;-0.0263272;-0.0596369;0.391382
0.0039;-0.0245568;-0.0514231;0.391382
0.00392;-0.0226075;-0.0462157;0.391382
0.00394;-0.0205386;-0.0395961;0.391382
0.00396;-0.0186506;-0.0331019;0.391382
0.00398;-0.0166667;-0.0246332;0.391382
0.004;-0.0148944;-0.0247708;0.391382
0.00402;-0.0129481;-0.0102288;0.391382
0.00404;-0.0110809;-0.0121184;0.391382
0.00406;-0.00900505;-0.00159016;0.391382
0.00408;-0.00713882;0.00479474;0.391382
0.0041;-0.00522314;0.00651033;0.391382
0.00412;-0.00336974;0.0168929;0.391382
0.00414;-0.00137597;0.0196038;0.391382
0.00416;0.000582215;0.0266766;0.391382
0.00418;0.00273809;0.0355175;0.391382
0.0042;0.00449068;0.0389932;0.391382
0.00422;0.00610585;0.0395637;0.391382
0.00424;0.00798398;0.0449007;0.391382
0.00426;0.010039;0.0512977;0.391382
0.00428;0.0119023;0.0577312;0.391382
0.0043;0.0140838;0.0626392;0.391382
0.00432;0.0158859;0.0698536;0.391382
0.00434;0.0178539;0.0708004;0.391382
0.00436;0.0197903;0.079095;0.391382
0.00438;0.0217702;0.0808795;0.391382
0.0044;0.0235189;0.0890567;0.391382
0.00442;0.0255522;0.0967324;0.391382
0.00444;0.0275123;0.0995203;0.391382
0.00446;0.029342;0.102903;0.391382
0.00448;0.031485;0.107811;0.391382
0.0045;0.0331754;0.116001;0.391382
0.00452;0.0352008;0.117575;0.391382
0.00454;0.037253;0.123025;0.391382
0.00456;0.0391419;0.127965;0.391382
0.00458;0.0411081;0.131748;0.391382
0.0046;0.0431215;0.137255;0.391382
0.00462;0.0449117;0.139084;0.391382
0.00464;0.0468303;0.145874;0.391382
0.00466;0.0464408;0.14226;0.391382
0.00468;0.0443976;0.143858;0.391382
0.0047;0.0426718;0.132659;0.391382
0.00472;0.0405385;0.130583;0.391382
0.00474;0.038705;0.128698;0.391382
0.00476;0.0366982;0.119634;0.391382
0.00478;0.0346906;0.118141;0.391382
0.0048;0.0327553;0.114989;0.391382
0.00482;0.0309562;0.109964;0.391382
0.00484;0.0289239;0.104263;0.391382
0.00486;0.0270378;0.0959475;0.391382
0.00488;0.0252033;0.0895748;0.391382
0.0049;0.0233657;0.0833192;0.391382
0.00492;0.0210862;0.0810858;0.391382
0.00494;0.0194009;0.0788482;0.391382
0.00496;0.0173241;0.0731391;0.391382
0.00498;0.0153807;0.0698334;0.391382
0.005;0.0136974;0.0639502;0.391382
0.00502;0.0114931;0.0540612;0.391382
0.00504;0.00958431;0.0496428;0.391382
0.00506;0.00788315;0.0490642;0.391382
0.00508;0.00587356;0.0376539;0.391382
0.0051;0.00390747;0.0320661;0.391382
0.00512;0.00224386;0.0304881;0.391382
0.00514;3.85508e-05;0.0222986;0.391382
0.00516;-0.00187317;0.0172813;0.391382
0.00518;-0.00354075;0.0122195;0.391382
0.0052;-0.00571244;0.00383984;0.391382
0.00522;-0.00746799;0.00119768;0.391382
0.00524;-0.00958134;-0.00325719;0.391382
0.00526;-0.0115445;-0.0080843;0.391382
0.00528;-0.013295;-0.0190009;0.391382
0.0053;-0.0154055;-0.0237795;0.391382
0.00532;-0.0171956;-0.0241153;0.391382
0.00534;-0.0191004;-0.0313661;0.391382
0.00536;-0.021105;-0.0418377;0.391382
0.00538;-0.0230118;-0.0464503;0.391382
0.0054;-0.0247891;-0.0515405;0.391382
0.00542;-0.0268649;-0.0559063;0.391382
0.00544;-0.0286739;-0.0640432;0.391382
0.00546;-0.030638;-0.0698859;0.39135
0.00548;-0.0325715;-0.0770072;0.391382
0.0055;-0.0343961;-0.0838453;0.391382
0.00552;-0.0363641;-0.0888585;0.391382
0.00554;-0.0383085;-0.0952353;0.391382
0.00556;-0.0402617;-0.0993585;0.391382
0.00558;-0.0420737;-0.107524;0.391382
0.0056;-0.044174;-0.112905;0.391382
0.00562;-0.0460544;-0.120998;0.391382
0.00564;-0.0478502;-0.125331;0.391382
0.00566;-0.0478632;-0.124384;0.391382
0.00568;-0.0460027;-0.120294;0.391382
0.0057;-0.0441416;-0.115645;0.391382
0.00572;-0.0421972;-0.105606;0.391382
0.00574;-0.0402192;-0.101657;0.391382
0.00576;-0.0383588;-0.0947539;0.391382
0.00578;-0.0362021;-0.088369;0.391382
0.0058;-0.0345334;-0.0859129;0.391382
0.00582;-0.0326149;-0.0756882;0.391382
0.00584;-0.030716;-0.0705495;0.391382
0.00586;-0.0287489;-0.0666328;0.391382
0.00588;-0.0267749;-0.0570393;0.391382
0.0059;-0.0248434;-0.0521474;0.391382
0.00592;-0.0230395;-0.0454023;0.391382
0.00594;-0.0211979;-0.0380706;0.391382
0.00596;-0.0191567;-0.0333123;0.391382
0.00598;-0.0171857;-0.0277488;0.391382
0.006;-0.0151732;-0.0239575;0.391382
0.00602;-0.0134038;-0.0161039;0.391382
0.00604;-0.0114219;-0.00944381;0.391382
0.00606;-0.00951611;-0.000829471;0.391382
0.00608;-0.00749863;0.000392481;0.391382
0.0061;-0.00571343;0.0104068;0.391382
0.00612;-0.00352592;0.0137611;0.391382
0.00614;-0.00165077;0.017338;0.391382
0.00616;-6.62278e-05;0.026187;0.391382
0.00618;0.00206988;0.0271257;0.391382
0.0062;0.00380072;0.0376499;0.391382
0.00622;0.00585379;0.0453174;0.391382
0.00624;0.00769929;0.0463573;0.391382
0.00626;0.00960013;0.0542474;0.391382
0.00628;0.0117263;0.0575248;0.391382
0.0063;0.0136548;0.0627201;0.391382
0.00632;0.0154104;0.066819;0.391382
0.00634;0.0175445;0.0729975;0.391382
0.00636;0.0193821;0.078391;0.391382
0.00638;0.0213818;0.0823442;0.391382
0.0064;0.0232085;0.0897569;0.391382
0.00642;0.0251845;0.0929169;0.391382
0.00644;0.0269974;0.0960204;0.391382
0.00646;0.0288933;0.105056;0.391382
0.00648;0.0309632;0.110704;0.391382
0.0065;0.0330736;0.112638;0.391382
0.00652;0.0347827;0.117247;0.391382
0.00654;0.0367754;0.123741;0.391382
0.00656;0.0385973;0.128402;0.391382
0.00658;0.040581;0.131534;0.391382
0.0066;0.0425452;0.139408;0.391382
0.00662;0.0445664;0.134763;0.391382
0.00664;0.0463825;0.144441;0.391382
0.00666;0.046782;0.14553;0.391382
0.00668;0.0448987;0.141423;0.391382
0.0067;0.0429693;0.138117;0.391382
0.00672;0.041019;0.133355;0.391382
0.00674;0.0390916;0.128831;0.391382
0.00676;0.03724;0.120901;0.391382
0.00678;0.0351444;0.119217;0.391382
0.0068;0.0332575;0.111845;0.391382
0.00682;0.0314792;0.109207;0.391382
0.00684;0.0292531;0.100394;0.391382
0.00686;0.0274096;0.0943695;0.391382
0.00688;0.0255828;0.0942683;0.391382
0.0069;0.0235011;0.0881908;0.391382
0.00692;0.0218632;0.0840921;0.391382
0.00694;0.0198655;0.0740616;0.391382
0.00696;0.0177442;0.0732645;0.391382
0.00698;0.0159353;0.0687004;0.391382
0.007;0.0140829;0.061308;0.391382
0.00702;0.0119656;0.0585323;0.391382
0.00704;0.0104838;0.0541503;0.391382
0.00706;0.00801462;0.049307;0.391382
0.00708;0.0061197;0.0403285;0.391382
0.0071;0.00460139;0.0345545;0.391382
0.00712;0.0022399;0.0332476;0.391382
0.00714;0.000843175;0.0244552;0.391382
0.00716;-0.00161815;0.0238928;0.391382
0.00718;-0.00284782;0.0208541;0.391382
0.0072;-0.00555527;0.00136762;0.391382
0.00722;-0.00750061;0.0040462;0.391382
0.00724;-0.00815103;-0.00129074;0.391382
0.00726;-0.011584;-0.0126525;0.391382
0.00728;-0.0135481;-0.0151692;0.391382
0.0073;-0.0135758;-0.0170952;0.391382
0.00732;-0.0176987;-0.0280118;0.391382
0.00734;-0.0189363;-0.0308927;0.391382
0.00736;-0.0196806;-0.039503;0.391382
0.00738;-0.0236296;-0.0450423;0.391382
0.0074;-0.0244026;-0.0474659;0.391382
0.00742;-0.0258972;-0.060256;0.391382
0.00744;-0.0290178;-0.0624733;0.391382
0.00746;-0.03012;-0.0673692;0.391382
0.00748;-0.0316848;-0.0747899;0.391382
0.0075;-0.034671;-0.0799528;0.391382
0.00752;-0.0357039;-0.0868557;0.391382
0.00754;-0.0378894;-0.0917961;0.391382
0.00756;-0.0401707;-0.096162;0.391382
0.00758;-0.0414589;-0.105889;0.391382
0.0076;-0.0437956;-0.111752;0.391382
0.00762;-0.0456224;-0.122414;0.391382
0.00764;-0.0472711;-0.127512;0.391382
0.00766;-0.0481944;-0.12718;0.391382
0.00768;-0.0464616;-0.123259;0.391382
0.0077;-0.0442374;-0.119165;0.391382
0.00772;-0.0426935;-0.109247;0.391382
0.00774;-0.0406788;-0.105015;0.391382
0.00776;-0.0384696;-0.0995122;0.391382
0.00778;-0.0367061;-0.0901614;0.391382
0.0078;-0.0348835;-0.0865239;0.391382
0.00782;-0.0328896;-0.078035;0.391382
0.00784;-0.0309977;-0.0731188;0.391382
0.00786;-0.0291482;-0.0644195;0.391382
0.00788;-0.0271911;-0.0576745;0.391382
0.0079;-0.0252161;-0.0533248;0.391382
0.00792;-0.0232975;-0.0475024;0.391382
0.00794;-0.0214282;-0.0377753;0.391382
0.00796;-0.019561;-0.0306499;0.391382
0.00798;-0.017592;-0.0255881;0.391382
0.008;-0.0156466;-0.0248072;0.391382
0.00802;-0.0136924;-0.0186044;0.391382
0.00804;-0.0118588;-0.0123935;0.391382
0.00806;-0.00981265;-0.00732362;0.391382
0.00808;-0.00766074;0.0015497;0.391382
0.0081;-0.00583205;0.0074976;0.391382
0.00812;-0.00414965;0.00865886;0.391382
0.00814;-0.00231404;0.0185761;0.391382
0.00816;-0.000108733;0.0246049;0.391382
0.00818;0.0017506;0.0250136;0.391382
0.0082;0.00361488;0.0344008;0.391382
0.00822;0.005493;0.0386897;0.391382
0.00824;0.00727919;0.0434359;0.391382
0.00826;0.00932829;0.0521434;0.391382
0.00828;0.0114634;0.0542312;0.391382
0.0083;0.0131952;0.0629426;0.391382
0.00832;0.0152315;0.0646866;0.391382
0.00834;0.0171135;0.0715651;0.391382
0.00836;0.0190796;0.0737541;0.391382
0.00838;0.0209963;0.0823401;0.391382
0.0084;0.0230316;0.0880007;0.391382
0.00842;0.0247041;0.0941874;0.391382
0.00844;0.0266752;0.0983752;0.391382
0.00846;0.028576;0.0995122;0.391382
0.00848;0.0304917;0.109021;0.391382
0.0085;0.0324004;0.110393;0.391382
0.00852;0.0344436;0.112371;0.391382
0.00854;0.0362653;0.121293;0.391382
0.00856;0.0384489;0.125141;0.391382
0.00858;0.0403219;0.129138;0.391382
0.0086;0.0423494;0.133253;0.391382
0.00862;0.0440396;0.136231;0.391382
0.00864;0.0461038;0.144158;0.391382
0.00866;0.0469372;0.14574;0.391382
0.00868;0.0451962;0.139893;0.391382
0.0087;0.0432333;0.134856;0.391382
0.00872;0.0414509;0.132554;0.391382
0.00874;0.039476;0.125946;0.391382
0.00876;0.037583;0.124886;0.391382
0.00878;0.0356921;0.118942;0.391382
0.0088;0.0336716;0.113306;0.391382
0.00882;0.0317124;0.113148;0.391382
0.00884;0.0297286;0.103368;0.391382
0.00886;0.027809;0.096263;0.391382
0.00888;0.0259595;0.093277;0.391382
0.0089;0.024121;0.0898094;0.391382
0.00892;0.0221509;0.0847435;0.391382
0.00894;0.0202777;0.0793661;0.391382
0.00896;0.018189;0.0757286;0.391382
0.00898;0.0164562;0.0679438;0.391382
0.009;0.0144694;0.0629103;0.391382
0.00902;0.0125329;0.0577028;0.391382
0.00904;0.0102921;0.0558416;0.391382
0.00906;0.0085553;0.0530092;0.391382
0.00908;0.0067464;0.0418336;0.391382
0.0091;0.00465971;0.0336239;0.391382
0.00912;0.00287253;0.0360395;0.391382
0.00914;0.000944989;0.029432;0.391382
0.00916;-0.00125834;0.0250055;0.391382
0.00918;-0.00272327;0.0167634;0.391382
0.0092;-0.00491473;0.00944382;0.391382
0.00922;-0.00703701;0.00583462;0.391382
0.00924;-0.00864923;-0.000477451;0.391382
0.00926;-0.0106123;-0.00788603;0.391382
0.00928;-0.012782;-0.0105646;0.391382
0.0093;-0.014325;-0.0195472;0.391382
0.00932;-0.0167033;-0.0248032;0.391382
0.00934;-0.0183255;-0.0310181;0.391382
0.00936;-0.0200621;-0.0356308;0.391382
0.00938;-0.0225334;-0.0413683;0.391382
0.0094;-0.0241021;-0.0443746;0.391382
0.00942;-0.0260573;-0.0590907;0.391382
0.00944;-0.0281815;-0.06096;0.391382
0.00946;-0.029861;-0.065071;0.391382
0.00948;-0.0317677;-0.0734425;0.391382
0.0095;-0.0337941;-0.0810413;0.391382
0.00952;-0.0356534;-0.0856378;0.391382
0.00954;-0.0375198;-0.0904567;0.391382
0.00956;-0.0395717;-0.0976874;0.391382
0.00958;-0.0412959;-0.107317;0.391382
0.0096;-0.0433854;-0.112286;0.391382
0.00962;-0.0451628;-0.120116;0.391382
0.00964;-0.0470794;-0.12194;0.391382
0.00966;-0.048226;-0.130049;0.391382
0.00968;-0.04661;-0.126063;0.391382
0.0097;-0.0448355;-0.113961;0.391382
0.00972;-0.0428379;-0.111036;0.391382
0.00974;-0.041009;-0.106982;0.391382
0.00976;-0.0390618;-0.100451;0.391382
0.00978;-0.0371826;-0.0912337;0.391382
0.0098;-0.0352631;-0.0839829;0.391382
0.00982;-0.0334166;-0.0801835;0.391382
0.00984;-0.0314406;-0.0710107;0.391382
0.00986;-0.029429;-0.0652814;0.391382
0.00988;-0.0276241;-0.0616439;0.391382
0.0099;-0.0255325;-0.0521272;0.391382
0.00992;-0.0238105;-0.046774;0.391382
0.00994;-0.0218415;-0.0434117;0.391382
0.00996;-0.0198546;-0.0341337;0.391382
0.00998;-0.0178707;-0.0282748;0.391382
0.01;-0.0161073;-0.0239211;0.391382
0.01002;-0.0139988;-0.0141455;0.391382
0.01004;-0.0119151;-0.00864269;0.391382
0.01006;-0.0102822;-0.00844441;0.391494
0.01008;-0.00849698;0.00130693;0.391382
0.0101;-0.00646171;0.00565254;0.391382
0.01012;-0.00450649;0.0106577;0.391382
0.01014;-0.00235753;0.0181512;0.391382
0.01016;-0.000541688;0.0201581;0.391382
0.01018;0.00134137;0.0281049;0.391382
0.0102;0.00320565;0.0299944;0.391382
0.01022;0.00507882;0.0403122;0.391382
0.01024;0.00708248;0.0425943;0.391382
0.01026;0.00888843;0.0492746;0.391382
0.01028;0.0109771;0.0544982;0.391382
0.0103;0.0128305;0.0600213;0.391382
0.01032;0.0147629;0.0625421;0.391382
0.01034;0.0165768;0.0675998;0.391382
0.01036;0.0187851;0.0744784;0.391382
0.01038;0.0206375;0.0810696;0.391382
0.0104;0.0225848;0.084343;0.391382
0.01042;0.0244234;0.0949441;0.391382
0.01044;0.0262125;0.0900117;0.391382
0.01046;0.0280263;0.0992532;0.391382
0.01048;0.0303681;0.104125;0.391382
0.0105;0.032093;0.108034;0.391382
0.01052;0.0339325;0.11543;0.391382
0.01054;0.0359628;0.120326;0.391382
0.01056;0.0378608;0.121378;0.391382
0.01058;0.0398179;0.128443;0.391382
0.0106;0.0418424;0.134188;0.391382
0.01062;0.0436443;0.137728;0.391382
0.01064;0.0457075;0.143515;0.391382
