t;vds;corrente;vg
0.000499;0.0171283;0.00151675;0.201509
0.000998;0.0175654;0.00192086;0.206308
0.001497;0.0179631;0.00168489;0.206467
0.001996;0.0183955;0.00205748;0.206467
0.002495;0.0189284;0.00248389;0.206467
0.002994;0.0194198;0.00202022;0.206467
0.003493;0.0198779;0.00209473;0.206404
0.003992;0.0203623;0.00213613;0.206467
0.004491;0.0208755;0.00233899;0.206467
0.00499;0.0213965;0.00266188;0.206467
0.005489;0.0218149;0.00305103;0.206467
0.005988;0.0223559;0.00360162;0.206467
0.006487;0.022865;0.00397833;0.206467
0.006986;0.0232844;0.00411081;0.206467
0.007485;0.0237345;0.00416049;0.206467
0.007984;0.0242298;0.00418533;0.206467
0.008483;0.0246779;0.00509195;0.206467
0.008982;0.0251171;0.00486011;0.206467
0.009481;0.0257152;0.00532791;0.206467
0.00998;0.0261908;0.00542728;0.206467
0.010479;0.0266082;0.00549766;0.206467
0.010978;0.0271758;0.00609376;0.206467
0.011477;0.0276889;0.00613516;0.206467
0.011976;0.0281902;0.00626763;0.206467
0.012475;0.0286146;0.00626349;0.206467
0.012974;0.0291169;0.00636285;0.206467
0.013473;0.0295858;0.00693829;0.206467
0.013972;0.0300209;0.00649945;0.206467
0.014471;0.0305676;0.00732741;0.206467
0.01497;0.0309674;0.0077207;0.206467
0.015469;0.0315476;0.00797323;0.206467
0.015968;0.0321615;0.0081057;0.206467
0.016467;0.0326597;0.0082713;0.206467
0.016966;0.0330683;0.00826302;0.206467
0.017465;0.0335145;0.00832512;0.206467
0.017964;0.0341263;0.00847002;0.206467
0.018463;0.0346149;0.00957946;0.206467
0.018962;0.0350046;0.00948012;0.206276
0.019461;0.0356065;0.00993549;0.206467
0.01996;0.0360764;0.0103702;0.206467
0.020459;0.0365531;0.0103743;0.206467
0.020958;0.0370634;0.0105606;0.206467
0.021457;0.0375152;0.0104861;0.206149
0.021956;0.0380079;0.0108794;0.206467
0.022455;0.0385663;0.0115086;0.206467
0.022954;0.0390005;0.0118936;0.206467
0.023453;0.0394328;0.0122538;0.206467
0.023952;0.0398837;0.0123945;0.206435
0.024451;0.0405055;0.0123655;0.206244
0.02495;0.0409159;0.0124276;0.206467
0.025449;0.0413709;0.012763;0.206467
0.025948;0.0419613;0.0129989;0.206244
0.026447;0.0423935;0.0140132;0.206467
0.026946;0.0428493;0.0143113;0.206467
0.027445;0.0432935;0.0143485;0.206467
0.027944;0.0438647;0.0144355;0.206467
0.028443;0.0442871;0.0146383;0.206467
0.028942;0.0448053;0.0146176;0.206467
0.029441;0.0452575;0.0153752;0.206467
0.02994;0.0457953;0.0161452;0.206467
0.030439;0.0461985;0.0162031;0.206467
0.030938;0.0467299;0.0161866;0.206467
0.031437;0.0472174;0.016584;0.206467
0.031936;0.0476533;0.0167206;0.206467
0.032435;0.0481449;0.0170311;0.206467
0.032934;0.0481349;0.0173706;0.206467
0.033433;0.0475204;0.0167579;0.206467
0.033932;0.0470091;0.0164267;0.206467
0.034431;0.0466557;0.0164308;0.206467
0.03493;0.0461071;0.0162777;0.206467
0.035429;0.0456897;0.0161203;0.206467
0.035928;0.0452308;0.0156277;0.206467
0.036427;0.0448052;0.0151765;0.206467
0.036926;0.044307;0.0146756;0.206467
0.037425;0.0437997;0.0142947;0.206467
0.037924;0.0433961;0.0139718;0.206467
0.038423;0.0428227;0.0131645;0.206467
0.038922;0.042277;0.0127547;0.206467
0.039421;0.0418527;0.0128375;0.206467
0.03992;0.0412839;0.0125394;0.206467
0.040419;0.0407523;0.0122662;0.206467
0.040918;0.0403122;0.0121047;0.206467
0.041417;0.0398106;0.0118398;0.206467
0.041916;0.0393757;0.012055;0.206467
0.042415;0.0389008;0.0108669;0.206467
0.042914;0.0384696;0.0104985;0.206467
0.043413;0.0379368;0.0103288;0.206467
0.043912;0.0374748;0.0103329;0.206467
0.044411;0.0370279;0.0103039;0.206467
0.04491;0.0366279;0.0103205;0.206467
0.045409;0.0360329;0.0101383;0.206467
0.045908;0.0355374;0.00997688;0.206467
0.046407;0.0349849;0.00926487;0.206467
0.046906;0.0344145;0.00879293;0.206467
0.047405;0.0339801;0.00895024;0.206467
0.047904;0.0335313;0.00875982;0.206467
0.048403;0.0329587;0.0084576;0.206467
0.048902;0.0325739;0.00849486;0.206467
0.049401;0.0321419;0.00828372;0.206467
0.0499;0.0315801;0.00826302;0.206467
0.050399;0.0310987;0.00826302;0.206467
0.050898;0.0306139;0.00822162;0.206467
0.051397;0.0301285;0.0072115;0.206467
0.051896;0.0295433;0.00707488;0.205831
0.052395;0.0290497;0.00627177;0.206467
0.052894;0.0285416;0.00639596;0.206467
0.053393;0.0280727;0.00622209;0.206467
0.053892;0.027608;0.00619312;0.206467
0.054391;0.0271394;0.00618898;0.206467
0.05489;0.02662;0.00575431;0.206467
0.055389;0.0261267;0.00528653;0.206467
0.055888;0.0256865;0.00455378;0.206467
0.056387;0.0251912;0.00427641;0.206467
0.056886;0.0246482;0.00416877;0.206467
0.057385;0.0242397;0.00412323;0.206467
0.057884;0.0237493;0.00372996;0.206085
0.058383;0.0232626;0.00381275;0.206467
0.058882;0.0227773;0.00348572;0.206467
0.059381;0.022333;0.00277781;0.206467
0.05988;0.021818;0.00258324;0.206467
0.060379;0.0212762;0.00249216;0.206467
0.060878;0.0208576;0.00242592;0.206467
0.061377;0.0204078;0.00209059;0.206404
0.061876;0.0198304;0.00201194;0.206467
0.062375;0.0194248;0.00195398;0.206467
0.062874;0.0189728;0.0014986;0.206467
0.063373;0.0184832;0.000881776;0.206467
0.063872;0.0180974;0.000563013;0.206467
0.064371;0.0176602;4.1398e-05;0.206467
0.06487;0.0171145;4.1398e-06;0.206467
0.065369;0.0166448;0.000115914;0.206467
0.065868;0.0161473;-0.000107635;0.206467
0.066367;0.0156341;-0.000231829;0.206467
0.066866;0.0151388;-0.000128334;0.206467
0.067365;0.0147362;-0.000509196;0.206467
0.067864;0.014219;-0.000298066;0.206467
0.068363;0.0137769;-0.000496777;0.206467
0.068862;0.0133061;-0.00138683;0.206467
0.069361;0.0128788;-0.00158554;0.206467
0.06986;0.0123922;-0.0019871;0.206467
0.070359;0.0118683;-0.00184635;0.206467
0.070858;0.0114577;-0.00224791;0.206467
0.071357;0.0109396;-0.00253771;0.206467
0.071856;0.0102931;-0.00296823;0.206467
0.072355;0.00982638;-0.00372581;0.206467
0.072854;0.00934378;-0.00371754;0.206467
0.073353;0.00882465;-0.00412737;0.206467
0.073852;0.00834113;-0.00405699;0.206467
0.074351;0.00783384;-0.00411495;0.206467
0.07485;0.0073661;-0.00441302;0.206467
0.075349;0.0068154;-0.00428883;0.206467
0.075848;0.00637524;-0.00447098;0.206467
0.076347;0.00594992;-0.00459104;0.206467
0.076846;0.00545448;-0.00526169;0.206467
0.077345;0.0049729;-0.00589505;0.206467
0.077844;0.00448831;-0.00543556;0.206467
0.078343;0.00389126;-0.00605236;0.206467
0.078842;0.00336626;-0.00612274;0.206467
0.079341;0.00282346;-0.00619726;0.206467
0.07984;0.00229154;-0.00623037;0.206467
0.080339;0.00185731;-0.00664021;0.206467
0.080838;0.00145565;-0.00756339;0.206467
0.081337;0.00101648;-0.0075344;0.206467
0.081836;0.000480609;-0.0078656;0.206467
0.082335;6.6121e-05;-0.00791527;0.206467
0.082834;-0.000364158;-0.00826302;0.206467
0.083333;-0.000935558;-0.00823818;0.206467
0.083832;-0.00138756;-0.00819265;0.206467
0.084331;-0.00186224;-0.00842862;0.206467
0.08483;-0.00239023;-0.00861492;0.206467
0.085329;-0.00293006;-0.00890469;0.206467
0.085828;-0.00339586;-0.010246;0.206467
0.086327;-0.00385474;-0.010068;0.206467
0.086826;-0.00439752;-0.0103081;0.206467
0.087325;-0.00480019;-0.0103826;0.206308
0.087824;-0.00534297;-0.010544;0.206467
0.088323;-0.00580978;-0.0106558;0.206467
0.088822;-0.00633181;-0.0104819;0.206467
0.089321;-0.0067789;-0.0111153;0.206467
0.08982;-0.00734143;-0.0113223;0.20634
0.090319;-0.00785356;-0.0121171;0.206467
0.090818;-0.00832534;-0.0122869;0.206467
0.091317;-0.00876642;-0.0124607;0.206467
0.091816;-0.00928161;-0.0124152;0.206467
0.092315;-0.00980466;-0.0125477;0.206467
0.092814;-0.0102566;-0.0127174;0.206467
0.093313;-0.0107728;-0.0133757;0.206467
0.093812;-0.0113067;-0.0139925;0.206467
0.094311;-0.0117498;-0.0145555;0.205863
0.09481;-0.0122629;-0.0145307;0.206467
0.095309;-0.0127988;-0.0148494;0.206467
0.095808;-0.0132419;-0.0152137;0.206467
0.096307;-0.0137029;-0.0156153;0.206467
0.096806;-0.0141983;-0.014986;0.206467
0.097305;-0.0146572;-0.0162984;0.206467
0.097804;-0.0151693;-0.0163273;0.206467
0.098303;-0.0157308;-0.0164639;0.206467
0.098802;-0.0161898;-0.0164433;0.206467
0.099301;-0.0166576;-0.016526;0.206467
0.0998;-0.0171402;-0.0165385;0.206467
0.100299;-0.0176197;-0.0165385;0.206467
0.100798;-0.0179345;-0.0167537;0.206467
0.101297;-0.0184764;-0.0175569;0.206467
0.101796;-0.0190063;-0.0179253;0.206467
0.102295;-0.0193636;-0.0182731;0.206467
0.102794;-0.0198354;-0.0179419;0.206467
0.103293;-0.0203613;-0.0180743;0.206467
0.103792;-0.0208508;-0.0186332;0.206467
0.104291;-0.0213245;-0.0185753;0.206117
0.10479;-0.021879;-0.0186125;0.206467
0.105289;-0.0223282;-0.0187408;0.206467
0.105788;-0.0227673;-0.0193576;0.206467
0.106287;-0.02324;-0.0195729;0.206467
0.106786;-0.0237285;-0.0197716;0.206213
0.107285;-0.0241124;-0.0199786;0.206308
0.107784;-0.0246216;-0.0202725;0.206467
0.108283;-0.0252128;-0.0205871;0.206467
0.108782;-0.0256441;-0.0205913;0.206467
0.109281;-0.0260557;-0.0207445;0.206467
0.10978;-0.0265895;-0.0210674;0.206467
0.110279;-0.0270979;-0.0215435;0.206467
0.110778;-0.0275952;-0.0222473;0.206467
0.111277;-0.0281024;-0.0221893;0.206467
0.111776;-0.028654;-0.0221645;0.206467
0.112275;-0.0291791;-0.0225785;0.206467
0.112774;-0.0295898;-0.0226158;0.206467
0.113273;-0.0300693;-0.0227151;0.206467
0.113772;-0.0304965;-0.0227565;0.206467
0.114271;-0.0309191;-0.0227358;0.206467
0.11477;-0.0314675;-0.0232782;0.206467
0.115269;-0.0320066;-0.0235844;0.206467
0.115768;-0.0324604;-0.0238908;0.206404
0.116267;-0.0329577;-0.0243378;0.206467
0.116766;-0.0334849;-0.0243296;0.206467
0.117265;-0.0339772;-0.0243709;0.206467
0.117764;-0.034529;-0.0247311;0.206467
0.118263;-0.0349839;-0.0247766;0.206308
0.118762;-0.0354259;-0.0247766;0.206467
0.119261;-0.0358859;-0.0248428;0.206467
0.11976;-0.0363655;-0.0254681;0.206435
0.120259;-0.036869;-0.0261097;0.206467
0.120758;-0.0373604;-0.0267391;0.206467
0.121257;-0.0378677;-0.0265404;0.206435
0.121756;-0.0383887;-0.0268426;0.206435
0.122255;-0.038814;-0.0268219;0.206467
0.122754;-0.0392551;-0.0270247;0.206467
0.123253;-0.0397573;-0.027596;0.206467
0.123752;-0.0402314;-0.0273807;0.206467
0.124251;-0.0406672;-0.0277781;0.206467
0.12475;-0.041285;-0.0283452;0.206467
0.125249;-0.0418024;-0.0286432;0.206467
0.125748;-0.0422869;-0.029053;0.206467
0.126247;-0.0428474;-0.0291648;0.206467
0.126746;-0.0433952;-0.0290282;0.206467
0.127245;-0.0438224;-0.0293718;0.206372
0.127744;-0.0443019;-0.0300135;0.206467
0.128243;-0.0448171;-0.0307339;0.206467
0.128742;-0.0452723;-0.0306801;0.206467
0.129241;-0.0456849;-0.0310403;0.206467
0.12974;-0.046239;-0.0309782;0.206467
0.130239;-0.0467299;-0.0309865;0.206467
0.130738;-0.0472164;-0.0311148;0.206467
0.131237;-0.0478488;-0.0323442;0.206467
0.131736;-0.0482761;-0.0323401;0.206467
0.132235;-0.0487047;-0.0323732;0.206467
0.132734;-0.0489464;-0.0328989;0.206467
0.133233;-0.0485931;-0.0325595;0.206467
0.133732;-0.0480273;-0.0316571;0.206467
0.134231;-0.0474849;-0.0312762;0.206467
0.13473;-0.0470426;-0.0312266;0.206467
0.135229;-0.0465519;-0.0309823;0.206467
0.135728;-0.0460292;-0.0309285;0.20634
0.136227;-0.0456463;-0.0309782;0.206467
0.136726;-0.0451853;-0.0309865;0.206149
0.137225;-0.0447262;-0.0300633;0.206467
0.137724;-0.0442418;-0.0299764;0.206467
0.138223;-0.0437543;-0.0295251;0.206467
0.138722;-0.0431966;-0.0302744;0.206467
0.139221;-0.0426738;-0.0297816;0.205862
0.13972;-0.0421901;-0.0291234;0.206467
0.140219;-0.0416393;-0.0290489;0.206467
0.140718;-0.0411438;-0.0289703;0.206467
0.141217;-0.0407483;-0.0289785;0.206467
0.141716;-0.0402332;-0.0289703;0.206467
0.142215;-0.039704;-0.0286847;0.206467
0.142714;-0.0392889;-0.0284322;0.206467
0.143213;-0.0388692;-0.0280761;0.206467
0.143712;-0.0383462;-0.0282748;0.206372
0.144211;-0.0378412;-0.0277781;0.206467
0.14471;-0.0374018;-0.0269958;0.206213
0.145209;-0.036858;-0.0269709;0.206467
0.145708;-0.0363259;-0.0268136;0.206467
0.146207;-0.0358445;-0.0265941;0.206467
0.146706;-0.0353637;-0.0262422;0.206467
0.147205;-0.0348684;-0.0252527;0.206467
0.147704;-0.0343849;-0.0249546;0.206467
0.148203;-0.0338992;-0.0248428;0.206181
0.148702;-0.0333861;-0.0248677;0.206467
0.149201;-0.0329409;-0.0248594;0.206467
0.1497;-0.0325069;-0.0243461;0.206467
0.150199;-0.0320214;-0.024284;0.206467
0.150698;-0.0313985;-0.0235679;0.206467
0.151197;-0.0309634;-0.023543;0.206054
0.151696;-0.0304797;-0.0233236;0.205895
0.152195;-0.0300081;-0.0228642;0.205226
0.152694;-0.0294811;-0.022711;0.206467
0.153193;-0.0290122;-0.022711;0.206149
0.153692;-0.0285346;-0.0226779;0.20529
0.154191;-0.028053;-0.0227234;0.205321
0.15469;-0.0275637;-0.0222721;0.205926
0.155189;-0.0270831;-0.0214359;0.206308
0.155688;-0.0265579;-0.0215021;0.206467
0.156187;-0.0261405;-0.0211543;0.206467
0.156686;-0.0256421;-0.0205333;0.206467
0.157185;-0.0251231;-0.0206534;0.206467
0.157684;-0.0246847;-0.0203512;0.206467
0.158183;-0.0242358;-0.0197509;0.206467
0.158682;-0.0236585;-0.0196433;0.206467
0.159181;-0.0231935;-0.0191714;0.206467
0.15968;-0.0226539;-0.0188816;0.206467
0.160179;-0.0222156;-0.0186539;0.206435
0.160678;-0.0217301;-0.0190513;0.206276
0.161177;-0.0211834;-0.0185007;0.206467
0.161676;-0.0207579;-0.0185504;0.206467
0.162175;-0.0202509;-0.0183724;0.206467
0.162674;-0.0197948;-0.0184925;0.206435
0.163173;-0.0193537;-0.0177018;0.206308
0.163672;-0.0188494;-0.0174782;0.206467
0.164171;-0.0184023;-0.0177556;0.206467
0.16467;-0.01797;-0.017768;0.206308
0.165169;-0.0174333;-0.0166047;0.206308
0.165668;-0.0169359;-0.0165881;0.206053
0.166167;-0.016475;-0.016526;0.205481
0.166666;-0.016019;-0.016526;0.205831
0.167165;-0.0154712;-0.0158968;0.20373
0.167664;-0.015052;-0.016319;0.204908
0.168163;-0.0146;-0.0155076;0.205926
0.168662;-0.0141223;-0.0155325;0.206467
0.169161;-0.0137552;-0.0154621;0.206181
0.16966;-0.0132764;-0.0155656;0.20599
0.170159;-0.0128057;-0.0155366;0.206245
0.170658;-0.0122067;-0.0148908;0.205894
0.171157;-0.0117419;-0.0144893;0.206467
0.171656;-0.011137;-0.0143899;0.206213
0.172155;-0.010602;-0.0137896;0.206435
0.172654;-0.0101816;-0.0138228;0.206467
0.173153;-0.00965469;-0.0124483;0.206213
0.173652;-0.00915921;-0.0126553;0.205862
0.174151;-0.0087388;-0.0131935;0.206435
0.17465;-0.00821972;-0.012469;0.206467
0.175149;-0.0076967;-0.0121668;0.206467
0.175648;-0.00730886;-0.0113057;0.206467
0.176147;-0.00681441;-0.0108876;0.206467
0.176646;-0.00627263;-0.0106599;0.206467
0.177145;-0.00573377;-0.0104571;0.206467
0.177644;-0.00520282;-0.0103288;0.206467
0.178143;-0.00475184;-0.010337;0.206467
0.178642;-0.00416067;-0.0103288;0.206467
0.179141;-0.00369784;-0.010337;0.206467
0.17964;-0.00323501;-0.010188;0.206467
0.180139;-0.00275042;-0.0102832;0.206467
0.180638;-0.00221357;-0.00981956;0.206467
0.181137;-0.00177836;-0.00905789;0.206467
0.181636;-0.00142407;-0.00888398;0.206467
0.182135;-0.000851674;-0.00897921;0.206467
0.182634;-0.000450016;-0.0083955;0.206467
0.183133;7.30292e-05;-0.00836652;0.206467
0.183632;0.000640482;-0.00803946;0.206404
0.184131;0.00105695;-0.00773726;0.206467
0.18463;0.00145664;-0.0077414;0.206467
0.185129;0.00203297;-0.00702934;0.206467
0.185628;0.00247411;-0.00650773;0.206467
0.186127;0.00295177;-0.00672715;0.206149
0.186626;0.00342744;-0.00666505;0.206467
0.187125;0.00405408;-0.00619726;0.206467
0.187624;0.00445179;-0.00621381;0.206467
0.188123;0.00501138;-0.00622623;0.206467
0.188622;0.00553838;-0.00589506;0.206467
0.189121;0.00596175;-0.00604408;0.206467
0.18962;0.00644926;-0.00545213;0.206467
0.190119;0.00696247;-0.00490566;0.206467
0.190618;0.00747661;-0.00457035;0.206467
0.191117;0.00789403;-0.00426813;0.20634
0.191616;0.00835396;-0.00414393;0.20634
0.192115;0.00889966;-0.00413151;0.206467
0.192614;0.00941187;-0.00413565;0.206467
0.193113;0.0099142;-0.00411909;0.206467
0.193612;0.0105112;-0.00389555;0.206467
0.194111;0.010982;-0.00363474;0.206467
0.19461;0.0113176;-0.00296824;0.206467
0.195109;0.0118988;-0.00263292;0.205194
0.195608;0.0123507;-0.00229345;0.206467
0.196107;0.0127209;-0.00209473;0.206244
0.196606;0.0132113;-0.00159382;0.206467
0.197105;0.0137867;-0.00149446;0.206467
0.197604;0.0141884;-0.00107221;0.206467
0.198103;0.0147194;-0.000405701;0.206467
0.198602;0.015263;-0.000140753;0.205958
0.199101;0.0157298;4.96776e-05;0.206372
0.1996;0.0161809;0.000264947;0.205671
0.200099;0.0167217;0.000318765;0.206467
0.200598;0.0172112;0.000467798;0.206467
0.201097;0.0175615;0.000476078;0.206467
0.201596;0.0179937;0.000943873;0.206467
0.202095;0.0184537;0.00142823;0.206467
0.202594;0.0188524;0.00178839;0.206467
0.203093;0.019405;0.00180495;0.204494
0.203592;0.0198759;0.00205334;0.205831
0.204091;0.0204866;0.00207818;0.206467
0.20459;0.0209693;0.00246732;0.206467
0.205089;0.0214863;0.0024135;0.206308
0.205588;0.0219452;0.00264119;0.206245
0.206087;0.0224427;0.00300964;0.206054
0.206586;0.0228906;0.00249629;0.20564
0.207085;0.023394;0.00281506;0.205895
0.207584;0.023772;0.00370098;0.206117
0.208083;0.0243038;0.00405286;0.20634
0.208582;0.0247618;0.00407355;0.206244
0.209081;0.0252079;0.00407769;0.206467
0.20958;0.0256846;0.00417705;0.205576
0.210079;0.0262253;0.00477734;0.206054
0.210578;0.0267327;0.00493463;0.206467
0.211077;0.0272143;0.00519544;0.206467
0.211576;0.0277076;0.0056177;0.206213
0.212075;0.0282396;0.00584538;0.206467
0.212574;0.0286491;0.00619726;0.206467
0.213073;0.0292265;0.00616414;0.206467
0.213572;0.0297722;0.00620553;0.206149
0.214071;0.0301205;0.0064415;0.206467
0.21457;0.030537;0.00654499;0.206467
0.215069;0.0311312;0.00707489;0.206467
0.215568;0.0316641;0.00729844;0.206467
0.216067;0.0321171;0.0080022;0.206467
0.216566;0.0326932;0.0082092;0.206467
0.217065;0.0331957;0.00820506;0.206467
0.217564;0.0336398;0.00830028;0.206435
0.218063;0.0341608;0.0082713;0.206467
0.218562;0.0346681;0.00869772;0.206467
0.219061;0.0351545;0.00943043;0.206404
0.21956;0.0356055;0.0100307;0.206467
0.220059;0.036176;0.00990651;0.206467
0.220558;0.0366232;0.0102004;0.206117
0.221057;0.0370219;0.0104695;0.206467
0.221556;0.037609;0.0106765;0.206467
0.222055;0.0380611;0.0110574;0.206467
0.222554;0.0384795;0.0119101;0.206467
0.223053;0.0390626;0.011906;0.206467
0.223552;0.039571;0.0121461;0.206467
0.224051;0.0399696;0.0123531;0.206467
0.22455;0.0404956;0.0124276;0.206467
0.225049;0.0410491;0.0126967;0.206467
0.225548;0.0415249;0.0127588;0.206467
0.226047;0.0418627;0.0131148;0.206467
0.226546;0.0424802;0.0128913;0.206467
0.227045;0.0429372;0.0134212;0.206467
0.227544;0.0433764;0.0144065;0.206467
0.228043;0.0437819;0.0142036;0.206467
0.228542;0.0443335;0.0144727;0.206467
0.229041;0.0447144;0.0146217;0.206467
0.22954;0.0452349;0.0155159;0.206467
0.230039;0.0458081;0.0162321;0.206467
0.230538;0.0462716;0.0158844;0.206467
0.231037;0.046721;0.0163729;0.206467
0.231536;0.0472055;0.01605;0.206467
0.232035;0.0477333;0.0165426;0.206467
0.232534;0.0481715;0.016762;0.206467
0.233033;0.047977;0.0167372;0.206467
0.233532;0.0474138;0.0164018;0.206467
0.234031;0.0470051;0.0163315;0.206467
0.23453;0.046394;0.0151309;0.206467
0.235029;0.0460213;0.0149281;0.206467
0.235528;0.0456285;0.0149239;0.206467
0.236027;0.0450836;0.0143899;0.206467
0.236526;0.0446947;0.0144065;0.206467
0.237025;0.0441975;0.0141457;0.206467
0.237524;0.0436398;0.0140546;0.206467
0.238023;0.0432351;0.0135081;0.206467
0.238522;0.0427636;0.0133798;0.206467
0.239021;0.0422335;0.0128458;0.206372
0.23952;0.0417184;0.0126305;0.206467
0.240019;0.0412741;0.0128168;0.206467
0.240518;0.040706;0.0125228;0.206467
0.241017;0.0401542;0.0123945;0.206467
0.241516;0.0397998;0.0120716;0.206467
0.242015;0.0393283;0.0121834;0.206467
0.242514;0.0388199;0.0119433;0.206467
0.243013;0.0383788;0.0110988;0.206467
0.243512;0.0379358;0.0107427;0.206467
0.244011;0.0374067;0.0110449;0.206467
0.24451;0.0369113;0.01078;0.206467
0.245009;0.0364779;0.0103702;0.206467
0.245508;0.0359995;0.0103288;0.206467
0.246007;0.0354486;0.0101839;0.206467
0.246506;0.0349661;0.0103122;0.206467
0.247005;0.0344185;0.00961261;0.206467
0.247504;0.0338805;0.00883433;0.206467
0.248003;0.0333674;0.00851141;0.206467
0.248502;0.0329252;0.00841206;0.206467
0.249001;0.0324655;0.0082299;0.206467
0.2495;0.032056;0.00825888;0.206467
0.249999;0.0315761;0.00808914;0.206467
0.250498;0.0309614;0.00786559;0.206467
0.250997;0.0304669;0.00736881;0.206467
0.251496;0.0299529;0.0071287;0.206467
0.251995;0.0295266;0.00738124;0.206467
0.252494;0.0289758;0.00745988;0.206467
0.252993;0.0284872;0.00651602;0.206467
0.253492;0.0280273;0.00653671;0.206467
0.253991;0.0274305;0.00632973;0.206467
