t;vds;corrente;vg
0.00998;0.00925298;0.00381497;0.377103
0.01996;0.011286;0.00474508;0.382927
0.02994;0.0131758;0.00571863;0.382719
0.03992;0.0150953;0.00667238;0.382671
0.0499;0.0170237;0.00767055;0.382671
0.05988;0.0189273;0.00864363;0.382703
0.06986;0.0208369;0.0095776;0.382847
0.07984;0.0227289;0.0105476;0.382895
0.08982;0.0246483;0.0115133;0.382783
0.0998;0.0266103;0.0124764;0.382975
0.10978;0.0286126;0.0134558;0.382927
0.11976;0.0306318;0.0144606;0.382687
0.12974;0.0325265;0.0154013;0.382751
0.13972;0.0345427;0.016323;0.382687
0.1497;0.0365187;0.0173302;0.383039
0.15968;0.0384754;0.0183061;0.382879
0.16966;0.0404315;0.019297;0.383071
0.17964;0.0423302;0.0202117;0.382911
0.18962;0.0442388;0.0211841;0.383007
0.1996;0.0460981;0.0221498;0.383247
0.20958;0.0479901;0.0230592;0.382783
0.21956;0.0472971;0.0227618;0.382847
0.22954;0.0454142;0.0218;0.382719
0.23952;0.0435311;0.0208044;0.382671
0.2495;0.0415248;0.019829;0.382703
0.25948;0.0396145;0.0189127;0.382975
0.26946;0.0376337;0.0179155;0.382847
0.27944;0.0357072;0.0169414;0.383263
0.28942;0.0337285;0.0159604;0.382799
0.2994;0.0317459;0.0150359;0.382767
0.30938;0.0296706;0.0140461;0.382687
0.31936;0.0278193;0.0130992;0.382719
0.32934;0.0258582;0.0121292;0.382671
0.33932;0.0238696;0.0111497;0.382783
0.3493;0.0220124;0.0101965;0.382847
0.35928;0.0200653;0.00923981;0.382975
0.36926;0.0181802;0.00827065;0.383774
0.37924;0.0162835;0.00728978;0.383151
0.38922;0.0143512;0.00630392;0.382863
0.3992;0.0124032;0.00533139;0.383103
0.40918;0.0104777;0.0043781;0.382687
0.41916;0.00845656;0.00338779;0.382719
0.42914;0.00646409;0.00238514;0.382671
0.43912;0.00452285;0.001381;0.383119
0.4491;0.00252642;0.000429214;0.383119
0.45908;0.000624693;-0.000505282;0.382863
0.46906;-0.00132834;-0.00146151;0.383215
0.47904;-0.0032113;-0.00245182;0.382671
0.48902;-0.0051841;-0.00344164;0.382671
0.499;-0.0072812;-0.00436082;0.383503
0.50898;-0.00923818;-0.00537532;0.382671
0.51896;-0.0112228;-0.0063261;0.382815
0.52894;-0.0132193;-0.00732042;0.383295
0.53892;-0.0151792;-0.00830822;0.382815
0.5489;-0.0170237;-0.00920617;0.382671
0.55888;-0.018878;-0.0101792;0.382687
0.56886;-0.0208192;-0.01117;0.382719
0.57884;-0.0227348;-0.0121436;0.383199
0.58882;-0.0246493;-0.0130755;0.382863
0.5988;-0.0265886;-0.0140644;0.383518
0.60878;-0.02858;-0.0150814;0.383343
0.61876;-0.0305232;-0.0160647;0.382911
0.62874;-0.0325018;-0.0170595;0.382959
0.63872;-0.034449;-0.0180464;0.382671
0.6487;-0.0363291;-0.0190056;0.382719
0.65868;-0.0383934;-0.0200141;0.382751
0.66866;-0.0403199;-0.0209802;0.382799
0.67864;-0.0423065;-0.0219547;0.382767
0.68862;-0.0443998;-0.0229367;0.382687
0.6986;-0.0462373;-0.0238777;0.383167
0.70858;-0.0481598;-0.0248374;0.382751
0.71856;-0.0477563;-0.0246412;0.382687
0.72854;-0.045812;-0.0236737;0.382671
0.73852;-0.0438667;-0.0226922;0.382927
0.7485;-0.0418346;-0.0217111;0.382671
0.75848;-0.0398492;-0.0207624;0.382767
0.76846;-0.0378578;-0.0197969;0.382671
0.77844;-0.0359787;-0.0187763;0.382815
0.78842;-0.0340167;-0.0178078;0.382703
0.7984;-0.0320707;-0.0167982;0.382751
0.80838;-0.0301069;-0.0158735;0.382719
0.81836;-0.0281498;-0.0148562;0.382671
0.82834;-0.0262194;-0.0138781;0.382815
0.83832;-0.0242911;-0.0128963;0.382767
0.8483;-0.0223331;-0.011946;0.382783
0.85828;-0.0204816;-0.0109882;0.382719
0.86826;-0.0185188;-0.0100054;0.382735
0.87824;-0.0166733;-0.00902691;0.382671
0.88822;-0.0148398;-0.00811408;0.382671
0.8982;-0.0128659;-0.00712677;0.382735
0.90818;-0.0108724;-0.00616858;0.383023
0.91816;-0.00882959;-0.00517533;0.383087
0.92814;-0.00686868;-0.00420966;0.382671
0.93812;-0.00483768;-0.00326481;0.382815
0.9481;-0.00286984;-0.00229228;0.382671
0.95808;-0.000899046;-0.00127086;0.382911
0.96806;0.000974047;-0.000363524;0.383182
0.97804;0.00287379;0.00061987;0.383438
0.98802;0.00495218;0.00161906;0.383774
0.998;0.00688944;0.00263111;0.383055
1.00798;0.00889176;0.00359672;0.382799
1.01796;0.0108804;0.00450109;0.382671
1.02794;0.0127801;0.00548153;0.382751
1.03792;0.014737;0.00652912;0.382703
1.0479;0.0166576;0.00746019;0.382943
1.05788;0.018506;0.00844852;0.382735
1.06786;0.0203841;0.0093751;0.382735
1.07784;0.0224219;0.0103525;0.382719
1.08782;0.0243187;0.0113543;0.383486
1.0978;0.026249;0.0122784;0.383039
1.10778;0.028215;0.0132519;0.383295
1.11776;0.0300958;0.014258;0.383454
1.12774;0.0322659;0.0152078;0.382671
1.13772;0.0341283;0.0161368;0.382783
1.1477;0.0360774;0.0171376;0.382959
1.15768;0.0380838;0.0181091;0.38355
1.16766;0.0400298;0.0190861;0.383582
1.17764;0.0419819;0.0200111;0.382927
1.18762;0.0439594;0.0210385;0.382735
1.1976;0.0458395;0.021971;0.383247
1.20758;0.0476565;0.0229288;0.383167
1.21756;0.04762;0.0229392;0.382927
1.22754;0.0457735;0.0219863;0.382815
1.23752;0.0438864;0.0210439;0.382751
1.2475;0.0420084;0.0200785;0.382959
1.25748;0.0400258;0.019091;0.383119
1.26746;0.0380128;0.0180899;0.382719
1.27744;0.0361021;0.0171148;0.382767
1.28742;0.0341065;0.0161402;0.383023
1.2974;0.032202;0.0152088;0.383534
1.30738;0.0301611;0.0142481;0.382799
1.31736;0.0282001;0.0132696;0.383406
1.32734;0.0262114;0.0122947;0.382703
1.33732;0.0242526;0.0113434;0.382719
1.3473;0.0223913;0.0103526;0.382671
1.35728;0.0203919;0.00935535;0.382735
1.36726;0.0184546;0.00842873;0.383662
1.37724;0.016622;0.00747845;0.382863
1.38722;0.0147164;0.00648914;0.382703
1.3972;0.0127702;0.0054899;0.382671
1.40718;0.0108823;0.00454752;0.382783
1.41716;0.00886709;0.00357252;0.382671
1.42714;0.00681737;0.00257135;0.382703
1.43712;0.00490776;0.00157265;0.382687
1.4471;0.00282247;0.000611969;0.382671
1.45708;0.000982931;-0.000339818;0.382671
1.46706;-0.000988851;-0.00128913;0.382831
1.47704;-0.00286787;-0.00228487;0.382927
1.48702;-0.004815;-0.00324456;0.382831
1.497;-0.00685293;-0.00420475;0.382671
1.50698;-0.00886116;-0.00515356;0.383358
1.51696;-0.010837;-0.006131;0.383231
1.52694;-0.0128531;-0.0071342;0.382943
1.53692;-0.0147933;-0.00809286;0.382767
1.5469;-0.0167237;-0.00902443;0.382687
1.55688;-0.0185514;-0.00998507;0.382687
1.56686;-0.0205025;-0.0109744;0.382671
1.57684;-0.0223953;-0.0119169;0.382751
1.58682;-0.0243009;-0.0128814;0.382799
1.5968;-0.0262224;-0.0139182;0.382975
1.60678;-0.0282406;-0.0148691;0.382719
1.61676;-0.0302034;-0.0158864;0.382671
1.62674;-0.0320696;-0.0168135;0.382671
1.63672;-0.0340967;-0.017802;0.382751
1.6467;-0.03603;-0.0188179;0.382703
1.65668;-0.0380256;-0.019815;0.382671
1.66666;-0.0399262;-0.020756;0.382703
1.67664;-0.0419157;-0.0217201;0.382719
1.68662;-0.0439417;-0.0227085;0.382751
1.6966;-0.0458582;-0.023692;0.382703
1.70658;-0.0477967;-0.0246729;0.382671
1.71656;-0.0481568;-0.0248324;0.382783
1.72654;-0.0462275;-0.023892;0.382735
1.73652;-0.0442567;-0.0228769;0.382671
1.7465;-0.0423272;-0.0219705;0.382687
1.75648;-0.0402617;-0.0209239;0.382703
1.76646;-0.0383316;-0.0200236;0.383039
1.77644;-0.0364386;-0.0190589;0.382671
1.78642;-0.0345369;-0.0180524;0.382735
1.7964;-0.0325355;-0.017061;0.382671
1.80638;-0.0305025;-0.0160953;0.382831
1.81636;-0.0286461;-0.0150863;0.382751
1.82634;-0.0266231;-0.0141236;0.382959
1.83632;-0.0246434;-0.0130745;0.382671
1.8463;-0.0227406;-0.0121574;0.382671
1.85628;-0.0208912;-0.0111863;0.382799
1.86626;-0.0189195;-0.0102049;0.382799
1.87624;-0.0169813;-0.00924672;0.382687
1.88622;-0.0151566;-0.0082919;0.382703
1.8962;-0.0132606;-0.00735399;0.382687
1.90618;-0.0111685;-0.0063464;0.382687
1.91616;-0.00921843;-0.0053551;0.383182
1.92614;-0.00727231;-0.00437909;0.382671
1.93612;-0.00529264;-0.00345693;0.382671
1.9461;-0.00326954;-0.00249183;0.382671
1.95608;-0.00140038;-0.00152029;0.382735
1.96606;0.00061976;-0.000555168;0.382719
1.97604;0.00245338;0.000423785;0.382703
1.98602;0.00452485;0.00139829;0.382671
1.996;0.00647002;0.00237378;0.382735
2.00598;0.00842893;0.00338879;0.382751
2.01596;0.0105132;0.00435835;0.382671
2.02594;0.0124228;0.00532989;0.382975
2.03592;0.0143433;0.00631523;0.38339
2.0459;0.0163289;0.00731351;0.38411
2.05588;0.0181645;0.00826278;0.38403
2.06586;0.0199755;0.0092126;0.382735
2.07584;0.0219848;0.0101713;0.382959
2.08582;0.0238814;0.0111661;0.383199
2.0958;0.0258395;0.0121055;0.382959
2.10578;0.0278192;0.013076;0.382927
2.11576;0.0297386;0.0140565;0.383614
2.12574;0.0317716;0.0150335;0.382703
2.13572;0.0336428;0.0159501;0.382863
2.1457;0.0356667;0.0168916;0.382751
2.15568;0.0376269;0.017922;0.382991
2.16566;0.0395494;0.0188841;0.382687
2.17564;0.0415774;0.0198669;0.383199
2.18562;0.0435389;0.0208212;0.383406
2.1956;0.0453828;0.0217803;0.383262
2.20558;0.0472112;0.0227386;0.382959
2.21556;0.0479447;0.0230948;0.382975
2.22554;0.0460913;0.0222081;0.382671
2.23552;0.044156;0.0211683;0.382719
2.2455;0.04227;0.0202512;0.383119
2.25548;0.0403169;0.0193019;0.383694
2.26546;0.0384066;0.0183329;0.382799
2.27544;0.0364741;0.0173386;0.382895
2.28542;0.0345388;0.0163694;0.382671
2.2954;0.032579;0.0153995;0.382671
2.30538;0.0305627;0.0144521;0.382735
2.31536;0.0285612;0.0134474;0.382799
2.32534;0.0265372;0.0124547;0.382671
2.33532;0.0245961;0.0115108;0.382879
2.3453;0.0226952;0.0105451;0.382671
2.35528;0.0207846;0.00957513;0.382831
2.36526;0.0188454;0.00865199;0.382975
2.37524;0.0169981;0.00768;0.382735
2.38522;0.0150372;0.00670691;0.382719
2.3952;0.0130712;0.0056934;0.382671
2.40518;0.0111991;0.00474361;0.382671
2.41516;0.00921942;0.00380368;0.382735
2.42514;0.00722395;0.00282474;0.382703
2.43512;0.00535285;0.00179392;0.382703
2.4451;0.00323696;0.000819414;0.382751
2.45508;0.00127209;-0.000114589;0.382831
2.46506;-0.000642458;-0.00112515;0.382719
2.47504;-0.00254319;-0.00206805;0.383087
2.48502;-0.00451399;-0.00303168;0.382767
2.495;-0.00658253;-0.00402002;0.382671
2.50498;-0.00849802;-0.00498217;0.382703
2.51496;-0.0105162;-0.00596062;0.382687
2.52494;-0.0124899;-0.00695144;0.382671
2.53492;-0.0144479;-0.00788787;0.382687
2.5449;-0.0163161;-0.00881652;0.382687
2.55488;-0.018201;-0.00977662;0.382671
2.56486;-0.0201048;-0.0107566;0.382671
2.57484;-0.0220292;-0.0117559;0.382767
2.58482;-0.0239219;-0.0126724;0.382767
2.5948;-0.0258415;-0.0136569;0.382671
2.60478;-0.0278646;-0.0146853;0.382767
2.61476;-0.0297889;-0.0156414;0.382671
2.62474;-0.0317933;-0.0166308;0.382671
2.63472;-0.0337671;-0.0176281;0.382671
2.6447;-0.0357102;-0.0186395;0.382671
2.65468;-0.0376081;-0.019613;0.382671
2.66466;-0.0395809;-0.0205604;0.382671
2.67464;-0.0415566;-0.0215427;0.382671
2.68462;-0.0435616;-0.0225233;0.382671
2.6946;-0.0454637;-0.0234529;0.382671
2.70458;-0.047459;-0.0244669;0.382671
2.71456;-0.0484666;-0.0249954;0.382799
2.72454;-0.0466656;-0.0240989;0.382671
2.73452;-0.0447648;-0.0230972;0.382735
2.7445;-0.0427438;-0.0221231;0.382719
2.75448;-0.0406665;-0.0211525;0.382783
2.76446;-0.0387675;-0.0202078;0.382735
2.77444;-0.0368312;-0.0192327;0.382735
2.78442;-0.0348844;-0.0182406;0.382671
2.7944;-0.032948;-0.0172408;0.382671
2.80438;-0.0309436;-0.016283;0.382671
2.81436;-0.0290557;-0.0152978;0.382671
2.82434;-0.0270307;-0.0142975;0.382671
2.83432;-0.0251447;-0.0133254;0.382671
2.8443;-0.0232222;-0.0123465;0.382687
2.85428;-0.0212524;-0.0113918;0.382671
2.86426;-0.019262;-0.0103965;0.382671
2.87424;-0.0174185;-0.00942202;0.382671
2.88422;-0.015569;-0.00845096;0.382671
2.8942;-0.0135863;-0.0075323;0.382671
2.90418;-0.0116886;-0.0065642;0.382671
2.91416;-0.00966554;-0.00556547;0.382671
2.92414;-0.00771348;-0.00457568;0.382671
2.93412;-0.00569131;-0.00365303;0.382895
2.9441;-0.00369587;-0.00269286;0.382719
2.95408;-0.00177145;-0.00168526;0.382671
2.96406;0.000176652;-0.000729522;0.382719
2.97404;0.00209021;0.000232636;0.382895
2.98402;0.0041212;0.00119183;0.382671
2.994;0.00606635;0.00218164;0.382895
3.00398;0.00802529;0.00317689;0.382751
3.01396;0.0100435;0.00412622;0.382671
3.02394;0.0119945;0.00511553;0.382671
3.03392;0.0138835;0.00611914;0.382671
3.0439;0.0158779;0.00707493;0.382671
3.05388;0.0176987;0.00804545;0.382751
3.06386;0.0195817;0.00900911;0.382671
3.07384;0.021577;0.00998161;0.382927
3.08382;0.0234956;0.0109393;0.382719
3.0938;0.0253985;0.0118882;0.382671
3.10378;0.0273483;0.0128735;0.382783
3.11376;0.0292946;0.0138525;0.382671
3.12374;0.0313404;0.0148246;0.382751
3.13372;0.0332707;0.0157777;0.383071
3.1437;0.0352601;0.0167231;0.382959
3.15368;0.0372626;0.0177175;0.382847
3.16366;0.0392236;0.0187378;0.383055
3.17364;0.0411371;0.0196589;0.382735
3.18362;0.0431168;0.0206316;0.382719
3.1936;0.0450533;0.0216099;0.383119
3.20358;0.0468363;0.0225766;0.382895
3.21356;0.0480806;0.0231486;0.382687
3.22354;0.0464328;0.0223563;0.382751
3.23352;0.0446001;0.0214246;0.382911
3.2435;0.0426609;0.0204048;0.382735
3.25348;0.0407;0.0194585;0.382799
3.26346;0.03881;0.0184865;0.382687
3.27344;0.0368381;0.0175218;0.382703
3.28342;0.0348518;0.0165547;0.382687
3.2934;0.0328513;0.0155892;0.382703
3.30338;0.0309495;0.0146364;0.382767
3.31336;0.0289373;0.0136909;0.382783
3.32334;0.0269675;0.0127002;0.383358
3.33332;0.0250036;0.0117183;0.382959
3.3433;0.0231126;0.0107822;0.382687
3.35328;0.021132;0.009791;0.382767
3.36326;0.01918;0.00881994;0.382735
3.37324;0.0173593;0.00789335;0.383119
3.38322;0.0154743;0.00693362;0.382767
3.3932;0.0135459;0.00593643;0.382975
3.40318;0.0116195;0.00492093;0.382767
3.41316;0.00962408;0.00395481;0.382751
3.42314;0.00761676;0.00296699;0.382671
3.43312;0.00570612;0.00198851;0.382671
3.4431;0.00362186;0.00096907;0.382687
3.45308;0.00165204;1.62994e-05;0.382671
3.46306;-0.000197376;-0.000941906;0.382671
3.47304;-0.00207146;-0.00189517;0.382671
3.48302;-0.00409752;-0.00289881;0.383007
3.493;-0.00611866;-0.00382639;0.382831
3.50298;-0.00815554;-0.00482757;0.382671
3.51296;-0.0101017;-0.00575173;0.382991
3.52294;-0.0120369;-0.00673362;0.382671
3.53292;-0.0140838;-0.0077229;0.382799
3.5429;-0.0159658;-0.00865944;0.382735
3.55288;-0.0178566;-0.00959932;0.382671
3.56286;-0.0196597;-0.0105535;0.383039
3.57284;-0.0216748;-0.0115825;0.382815
3.58282;-0.0235636;-0.0125253;0.382671
3.5928;-0.0254774;-0.0135092;0.382671
3.60278;-0.0274411;-0.0145075;0.382671
3.61276;-0.0294268;-0.0155085;0.382671
3.62274;-0.0313819;-0.0164307;0.382671
3.63272;-0.0333348;-0.0174182;0.382751
3.6427;-0.0352689;-0.0184503;0.382671
3.65268;-0.0372517;-0.0194081;0.382815
3.66266;-0.0391811;-0.0204053;0.382671
3.67264;-0.04114;-0.0214094;0.382767
3.68262;-0.0432284;-0.0223286;0.382671
3.6926;-0.0451609;-0.0233393;0.382671
3.70258;-0.0471184;-0.0243034;0.382671
3.71256;-0.0485448;-0.0250206;0.382671
3.72254;-0.0470237;-0.0242974;0.382671
3.73252;-0.0451545;-0.0232735;0.382671
3.7425;-0.0431535;-0.0223296;0.382671
3.75248;-0.0411007;-0.0213718;0.382735
3.76246;-0.0391663;-0.0204033;0.382671
3.77244;-0.037234;-0.0194506;0.382687
3.78242;-0.0352346;-0.0184722;0.382671
3.7924;-0.0333131;-0.0174379;0.382671
3.80238;-0.0312889;-0.0164465;0.382671
3.81236;-0.0293854;-0.0154884;0.382671
3.82234;-0.0274235;-0.0145099;0.382751
3.83232;-0.0254467;-0.0134963;0.382671
3.8423;-0.0235844;-0.0125343;0.382671
3.85228;-0.0216591;-0.0115716;0.382671
3.86226;-0.0196953;-0.0106227;0.382671
3.87224;-0.0178635;-0.00966256;0.382671
3.88222;-0.0159371;-0.00868657;0.382671
3.8922;-0.0141133;-0.00776643;0.382671
3.90218;-0.0120824;-0.00676321;0.382671
3.91216;-0.0100682;-0.0057922;0.382671
3.92214;-0.00815361;-0.00480584;0.382703
3.93212;-0.00608807;-0.00383134;0.382671
3.9421;-0.00409358;-0.00290377;0.382671
3.95208;-0.00217016;-0.0019169;0.382671
3.96206;-0.000225009;-0.000949313;0.382671
3.97204;0.00165895;7.90273e-06;0.382735
3.98202;0.00366526;0.000987841;0.382671
3.992;0.00567849;0.00198951;0.382671
4.00198;0.00759601;0.00300254;0.382687
4.01196;0.00956878;0.00392864;0.382735
4.02194;0.0116185;0.00491845;0.382671
4.03192;0.0135509;0.00590481;0.382671
4.0419;0.0154792;0.00690105;0.382831
4.05188;0.0173078;0.00787602;0.383151
4.06186;0.0191613;0.00882689;0.383183
4.07184;0.0211922;0.00976081;0.382895
4.08182;0.0231177;0.0107343;0.382815
4.0918;0.0250263;0.0117124;0.383247
4.10178;0.0269833;0.0126779;0.382943
4.11176;0.0289255;0.0136564;0.383039
4.12174;0.0309279;0.0146221;0.383151
4.13172;0.0329233;0.0155579;0.382911
4.1417;0.0349038;0.01657;0.382703
4.15168;0.036858;0.0175288;0.382767
4.16166;0.0388011;0.0185012;0.382991
4.17164;0.0408064;0.0194748;0.382783
4.18162;0.0427133;0.0204572;0.382863
4.1916;0.0445982;0.0213817;0.382719
4.20158;0.0464989;0.0223953;0.382735
4.21156;0.0480738;0.0231556;0.382671
4.22154;0.0468373;0.0225855;0.382671
4.23152;0.0450548;0.0216232;0.382799
4.2415;0.0431338;0.0206448;0.382895
4.25148;0.04115;0.0196892;0.383231
4.26146;0.0392068;0.0186761;0.382815
4.27144;0.0372695;0.017756;0.382783
4.28142;0.0353283;0.016769;0.383455
4.2914;0.0333299;0.0157605;0.382783
4.30138;0.0313452;0.014827;0.382671
4.31136;0.0293784;0.0138712;0.382671
4.32134;0.0273623;0.0128489;0.382703
4.33132;0.0254072;0.0118946;0.383071
4.3413;0.0235173;0.0109472;0.382927
4.35128;0.0215702;0.00994512;0.382815
4.36126;0.0195897;0.00900419;0.382799
4.37124;0.0177323;0.00804544;0.382671
4.38122;0.0158216;0.00706107;0.382783
4.3912;0.0138528;0.00608905;0.382751
4.40118;0.0119906;0.00513087;0.382671
4.41116;0.010005;0.00416225;0.382687
4.42114;0.00802236;0.00319912;0.382687
4.43112;0.0060703;0.00219053;0.383007
4.4411;0.00411035;0.00118343;0.383342
4.45108;0.00208134;0.000224734;0.382719
4.46106;0.000138163;-0.00075224;0.382671
4.47104;-0.0017606;-0.0017297;0.382767
4.48102;-0.00369092;-0.00268791;0.382719
4.491;-0.0056479;-0.0036308;0.382767
4.50098;-0.0076641;-0.00457222;0.382783
4.51096;-0.00960629;-0.00556007;0.382735
4.52094;-0.0116757;-0.00654098;0.382879
4.53092;-0.0136723;-0.00752637;0.382671
4.5409;-0.0155532;-0.00847865;0.382895
4.55088;-0.0174144;-0.00943043;0.382783
4.56086;-0.019338;-0.0103876;0.382671
4.57084;-0.0212623;-0.0113152;0.382847
4.58082;-0.0231532;-0.012305;0.382687
4.5908;-0.0250855;-0.0133264;0.382671
4.60078;-0.0270967;-0.0142793;0.382671
4.61076;-0.0290153;-0.0152784;0.382671
4.62074;-0.0309032;-0.0162228;0.382751
4.63072;-0.0328917;-0.0172344;0.382671
4.6407;-0.0349275;-0.0182508;0.382671
4.65068;-0.0367722;-0.0192279;0.382719
4.66066;-0.0387685;-0.0201712;0.382671
4.67064;-0.0407374;-0.0211584;0.382719
4.68062;-0.0427241;-0.0221463;0.382863
4.6906;-0.0447048;-0.0230913;0.382751
4.70058;-0.0465661;-0.0240861;0.382831
4.71056;-0.0484066;-0.0249495;0.382831
4.72054;-0.047383;-0.0244689;0.382687
4.73052;-0.0454359;-0.0234746;0.382671
4.7405;-0.0435864;-0.0225247;0.382703
4.75048;-0.0414824;-0.0215694;0.382671
4.76046;-0.0395138;-0.0206083;0.382767
4.77044;-0.0375745;-0.0196067;0.382799
4.78042;-0.035647;-0.0186371;0.382671
4.7904;-0.0337157;-0.0176404;0.382671
4.80038;-0.031663;-0.0166574;0.382767
4.81036;-0.0297535;-0.0156958;0.382831
4.82034;-0.0278055;-0.0146932;0.382687
4.83032;-0.025793;-0.0137052;0.383087
4.8403;-0.0239012;-0.012716;0.382719
4.85028;-0.0219572;-0.0117504;0.382671
4.86026;-0.0199854;-0.0107536;0.382671
4.87024;-0.018195;-0.00983397;0.382671
4.88022;-0.0163289;-0.00886192;0.382671
4.8902;-0.0143937;-0.00793927;0.382671
4.90018;-0.0124337;-0.00690645;0.382751
4.91016;-0.0104323;-0.00595471;0.382767
4.92014;-0.00844669;-0.00496242;0.382783
4.93012;-0.00656969;-0.00401359;0.382815
4.9401;-0.0044883;-0.00306873;0.382671
4.95008;-0.00244056;-0.00207791;0.382671
4.96006;-0.000527979;-0.00112465;0.382895
4.97004;0.00135597;-0.000132864;0.382815
4.98002;0.00327841;0.000807559;0.382671
4.99;0.00527883;0.00175687;0.382719
4.99998;0.00724271;0.00278768;0.382703
5.00996;0.00920956;0.00377404;0.382703
5.01994;0.0111606;0.00469765;0.382671
5.02992;0.0131719;0.00567418;0.382671
5.0399;0.0150321;0.00668917;0.382879
5.04988;0.0170049;0.00765772;0.382671
5.05986;0.0188355;0.0086466;0.382799
5.06984;0.0207659;0.00957612;0.382687
5.07982;0.0227111;0.0105432;0.382815
5.0898;0.0246789;0.0115079;0.382671
5.09978;0.0265659;0.0124853;0.382671
5.10976;0.0285643;0.0134894;0.382671
5.11974;0.0305755;0.0145035;0.382671
5.12972;0.032637;0.0154448;0.382895
5.1397;0.0346108;0.0164223;0.38371
5.14968;0.0365838;0.0173441;0.383454
5.15966;0.0384537;0.0183259;0.38339
5.16964;0.0404028;0.0193261;0.382735
5.17962;0.0423638;0.0202685;0.382783
5.1896;0.044309;0.0212419;0.382895
5.19958;0.0461573;0.0221997;0.383294
5.20956;0.0480276;0.0231422;0.383886
5.21954;0.0473248;0.0228275;0.382847
