t;vds;corrente;vg
0;-0.0627688;0.0170992;-0.326764
2e-05;-0.043074;0.0172246;-0.397035
4e-05;-0.022651;0.0173622;-0.399372
6e-05;-0.0138802;0.0170345;-0.399308
8e-05;-0.0109523;0.0186894;-0.39934
0.0001;-0.00834476;0.0181067;-0.39926
0.00012;-0.00547224;0.017079;-0.399356
0.00014;-0.000591112;0.0188472;-0.39918
0.00016;-0.000694903;0.0185235;-0.399372
0.00018;-0.000971678;0.0162171;-0.399372
0.0002;0.00060594;0.0184507;-0.399372
0.00022;0.00241585;0.0177385;-0.399372
0.00024;0.00413878;0.015768;-0.399372
0.00026;0.00634507;0.0189443;-0.399324
0.00028;0.00843274;0.0182443;-0.399372
0.0003;0.0100696;0.01699;-0.399372
0.00032;0.0123619;0.0183495;-0.399308
0.00034;0.0144624;0.0184385;-0.399292
0.00036;0.015956;0.017605;-0.399276
0.00038;0.0182938;0.0183131;-0.399116
0.0004;0.0203419;0.0173137;-0.399356
0.00042;0.0220776;0.0178356;-0.399372
0.00044;0.0242899;0.0186853;-0.399372
0.00046;0.026253;0.017961;-0.399372
0.00048;0.0279809;0.0175443;-0.399372
0.0005;0.0300043;0.0184466;-0.39918
0.00052;0.0320999;0.0198668;-0.39926
0.00054;0.0338367;0.0173298;-0.399372
0.00056;0.036116;0.0178397;-0.399372
0.00058;0.0380101;0.0183778;-0.399228
0.0006;0.0399987;0.0193448;-0.399212
0.00062;0.0420312;0.0180662;-0.399372
0.00064;0.0440772;0.0181431;-0.399372
0.00066;0.0459061;0.017427;-0.399292
0.00068;0.048035;0.0188188;-0.399372
0.0007;0.0478632;0.0187541;-0.399372
0.00072;0.0458536;0.0180824;-0.399372
0.00074;0.0440626;0.0181229;-0.399372
0.00076;0.0420064;0.0195876;-0.399308
0.00078;0.0399692;0.0174714;-0.39934
0.0008;0.03783;0.0184466;-0.399372
0.00082;0.0360825;0.0173015;-0.399372
0.00084;0.0340333;0.0179044;-0.399372
0.00086;0.0320416;0.0184385;-0.399372
0.00088;0.0300864;0.0171032;-0.39918
0.0009;0.0280254;0.0181431;-0.399308
0.00092;0.0261582;0.0161888;-0.399372
0.00094;0.0241901;0.0176778;-0.399372
0.00096;0.0221656;0.0175524;-0.399372
0.00098;0.0200424;0.0178194;-0.399372
0.001;0.018193;0.0171841;-0.399372
0.00102;0.0162743;0.0189847;-0.399372
0.00104;0.0140473;0.018483;-0.399372
0.00106;0.0119379;0.0172084;-0.399372
0.00108;0.0100983;0.0180298;-0.399372
0.0011;0.00836552;0.0181148;-0.399372
0.00112;0.00615726;0.0193974;-0.399372
0.00114;0.00421489;0.0167431;-0.399372
0.00116;0.0023684;0.0177951;-0.399372
0.00118;0.000205604;0.0179044;-0.399372
0.0012;-0.0017081;0.0181957;-0.399372
0.00122;-0.00353383;0.0175807;-0.399372
0.00124;-0.00558493;0.0175888;-0.39934
0.00126;-0.00759451;0.0184709;-0.399308
0.00128;-0.00963867;0.0175524;-0.399372
0.0013;-0.0117866;0.0190778;-0.399372
0.00132;-0.0135521;0.0169374;-0.399372
0.00134;-0.0155903;0.0174917;-0.399372
0.00136;-0.0174012;0.0179772;-0.399276
0.00138;-0.0195689;0.0171842;-0.399372
0.0014;-0.0214856;0.016646;-0.399372
0.00142;-0.0234665;0.0177992;-0.399372
0.00144;-0.0254791;0.0182928;-0.399372
0.00146;-0.0275401;0.0178801;-0.399212
0.00148;-0.0295298;0.0177587;-0.399372
0.0015;-0.0313852;0.0184587;-0.399196
0.00152;-0.0335283;0.0178437;-0.399372
0.00154;-0.035436;0.0174674;-0.399372
0.00156;-0.03742;0.0165287;-0.399372
0.00158;-0.0393216;0.0178356;-0.399372
0.0016;-0.0414617;0.0157275;-0.399372
0.00162;-0.0434121;0.0177587;-0.399372
0.00164;-0.0450797;0.0170224;-0.399372
0.00166;-0.0468491;0.0176819;-0.399372
0.00168;-0.0491671;0.017872;-0.399372
0.0017;-0.0496781;0.0172084;-0.399244
0.00172;-0.047786;0.0174067;-0.399372
0.00174;-0.0455631;0.0178922;-0.399372
0.00176;-0.0435584;0.0173217;-0.399372
0.00178;-0.0416644;0.0185801;-0.399372
0.0018;-0.0397766;0.0177911;-0.399372
0.00182;-0.0376117;0.0169293;-0.399372
0.00184;-0.035868;0.0171397;-0.399372
0.00186;-0.0336686;0.0182766;-0.399372
0.00188;-0.0317895;0.0188391;-0.399372
0.0019;-0.0297177;0.0183171;-0.39926
0.00192;-0.0277842;0.0193368;-0.399372
0.00194;-0.0258191;0.0177385;-0.399372
0.00196;-0.0239924;0.0176657;-0.399372
0.00198;-0.0218454;0.0178478;-0.39918
0.002;-0.0197103;0.0176616;-0.399372
0.00202;-0.0179468;0.0176657;-0.399372
0.00204;-0.0159402;0.0167795;-0.399372
0.00206;-0.0139702;0.017431;-0.399372
0.00208;-0.0119665;0.0178235;-0.399372
0.0021;-0.0102169;0.0189928;-0.399324
0.00212;-0.0080245;0.0182038;-0.399372
0.00214;-0.00594869;0.0167189;-0.399372
0.00216;-0.00398457;0.0180136;-0.399372
0.00218;-0.00187614;0.0159946;-0.399372
0.0022;-4.34933e-05;0.0176373;-0.399372
0.00222;0.00220036;0.0178801;-0.399372
0.00224;0.00409331;0.0171842;-0.399372
0.00226;0.00592002;0.0171478;-0.399372
0.00228;0.00766074;0.0163507;-0.399372
0.0023;0.0100924;0.0188067;-0.399372
0.00232;0.0117026;0.0165934;-0.399372
0.00234;0.0138743;0.0181512;-0.399372
0.00236;0.0160104;0.0182807;-0.399372
0.00238;0.0176177;0.0168605;-0.399372
0.0024;0.0196094;0.0186489;-0.399372
0.00242;0.0220283;0.0154929;-0.399372
0.00244;0.0235466;0.0184587;-0.399372
0.00246;0.0257361;0.0183859;-0.39934
0.00248;0.0279334;0.0185599;-0.399372
0.0025;0.0294755;0.0192558;-0.399372
0.00252;0.0315158;0.019268;-0.399196
0.00254;0.0338821;0.0184102;-0.399356
0.00256;0.0352956;0.0185073;-0.399372
0.00258;0.0376047;0.0172004;-0.399372
0.0026;0.0396657;0.0172287;-0.399356
0.00262;0.0413423;0.018653;-0.399356
0.00264;0.0435751;0.0169414;-0.399372
0.00266;0.0457322;0.020057;-0.399372
0.00268;0.0474668;0.0184951;-0.399372
0.0027;0.0482923;0.0184668;-0.399372
0.00272;0.0464932;0.0190292;-0.399372
0.00274;0.0442572;0.0196443;-0.399372
0.00276;0.0423059;0.0179934;-0.399372
0.00278;0.0403705;0.0179732;-0.399372
0.0028;0.0384232;0.0199396;-0.399372
0.00282;0.0363652;0.0200286;-0.399372
0.00284;0.0342557;0.0173582;-0.399372
0.00286;0.0324211;0.018046;-0.399372
0.00288;0.0304264;0.0179651;-0.399372
0.0029;0.0284692;0.0186732;-0.399372
0.00292;0.0264438;0.0175969;-0.399372
0.00294;0.0244283;0.0183454;-0.399372
0.00296;0.0226421;0.0163952;-0.399372
0.00298;0.0206138;0.0186408;-0.399372
0.003;0.0184638;0.018487;-0.399228
0.00302;0.0166272;0.0189362;-0.399372
0.00304;0.0146878;0.0178154;-0.399372
0.00306;0.0126229;0.0187986;-0.399372
0.00308;0.0105085;0.0185437;-0.399372
0.0031;0.00848908;0.0192113;-0.399372
0.00312;0.00662185;0.0175281;-0.399372
0.00314;0.00479809;0.0189362;-0.399372
0.00316;0.00258488;0.0175402;-0.399356
0.00318;0.000723569;0.019005;-0.399324
0.0032;-0.00093807;0.0178599;-0.399372
0.00322;-0.00314832;0.0168038;-0.399372
0.00324;-0.00518163;0.0177911;-0.399356
0.00326;-0.00728611;0.0161969;-0.399372
0.00328;-0.00910392;0.0183333;-0.399372
0.0033;-0.0112815;0.0164963;-0.399372
0.00332;-0.0132298;0.0169212;-0.399276
0.00334;-0.0152601;0.0176819;-0.399372
0.00336;-0.017244;0.0200124;-0.399292
0.00338;-0.0191251;0.0174269;-0.399372
0.0034;-0.0211505;0.0171639;-0.399276
0.00342;-0.0230434;0.0169778;-0.399372
0.00344;-0.024974;0.0181755;-0.399372
0.00346;-0.0271803;0.0172651;-0.399372
0.00348;-0.0291473;0.0173339;-0.399372
0.0035;-0.0311253;0.0171032;-0.399372
0.00352;-0.0331635;0.0163587;-0.399372
0.00354;-0.0348785;0.0191951;-0.399324
0.00356;-0.0367824;0.0172166;-0.399372
0.00358;-0.0393188;0.017427;-0.39934
0.0036;-0.0412918;0.0160836;-0.399372
0.00362;-0.0432717;0.0179408;-0.399356
0.00364;-0.0447889;0.0175767;-0.399164
0.00366;-0.046601;0.019187;-0.399148
0.00368;-0.0486737;0.0170507;-0.399372
0.0037;-0.0498135;0.0177668;-0.399324
0.00372;-0.0481102;0.0172651;-0.399276
0.00374;-0.0461977;0.0163628;-0.399372
0.00376;-0.0441158;0.0178518;-0.399372
0.00378;-0.0420589;0.0185558;-0.399372
0.0038;-0.0400315;0.0175119;-0.39918
0.00382;-0.0381415;0.0176738;-0.399372
0.00384;-0.036296;0.0185923;-0.399292
0.00386;-0.0341163;0.0177992;-0.399372
0.00388;-0.0321691;0.018046;-0.399372
0.0039;-0.0300992;0.0168888;-0.399372
0.00392;-0.028236;0.0170709;-0.399372
0.00394;-0.0263628;0.016383;-0.399276
0.00396;-0.0242266;0.0179934;-0.399372
0.00398;-0.0224385;0.0182362;-0.399372
0.004;-0.0202559;0.0179287;-0.399372
0.00402;-0.0183541;0.0191183;-0.399356
0.00404;-0.0164315;0.0187743;-0.399356
0.00406;-0.0142865;0.0163911;-0.399372
0.00408;-0.0124746;0.0181836;-0.399372
0.0041;-0.0104176;0.017961;-0.399372
0.00412;-0.00845052;0.0184223;-0.399372
0.00414;-0.00644491;0.0182119;-0.399372
0.00416;-0.00439974;0.0171923;-0.399372
0.00418;-0.00240893;0.0172611;-0.399372
0.0042;-0.000317303;0.0172853;-0.399372
0.00422;0.00164978;0.0176657;-0.39918
0.00424;0.00342312;0.0169495;-0.399372
0.00426;0.00559778;0.0176373;-0.399372
0.00428;0.00748282;0.0159703;-0.399372
0.0043;0.00939057;0.0184749;-0.399372
0.00432;0.0113339;0.0188148;-0.399372
0.00434;0.0133791;0.0169859;-0.399372
0.00436;0.0155587;0.0172975;-0.399372
0.00438;0.0176236;0.0169212;-0.399372
0.0044;0.0193613;0.0176333;-0.399372
0.00442;0.021537;0.0168281;-0.399372
0.00444;0.0236494;0.0197292;-0.399372
0.00446;0.0251716;0.0172327;-0.399372
0.00448;0.0273028;0.0186691;-0.399372
0.0045;0.0296;0.0179004;-0.399164
0.00452;0.0312972;0.0181755;-0.39934
0.00454;0.033035;0.0169171;-0.399324
0.00456;0.0354449;0.0188229;-0.399372
0.00458;0.0375227;0.0200125;-0.399372
0.0046;0.0388086;0.0138258;-0.399372
0.00462;0.041269;0.0194379;-0.399372
0.00464;0.0441891;0.0220558;-0.399372
0.00466;0.0440487;0.0109611;-0.399372
0.00468;0.0471593;0.0191506;-0.399372
0.0047;0.049528;0.0229784;-0.399372
0.00472;0.0457498;0.0125715;-0.39934
0.00474;0.0442473;0.0190616;-0.399372
0.00476;0.0443255;0.0215096;-0.399308
0.00478;0.0396658;0.0125149;-0.399372
0.0048;0.0382799;0.0196159;-0.399372
0.00482;0.0382848;0.0203038;-0.399372
0.00484;0.0336064;0.0145582;-0.399292
0.00486;0.0326406;0.0191547;-0.399372
0.00488;0.0319329;0.0191425;-0.399228
0.0049;0.0278247;0.0155576;-0.399372
0.00492;0.0264666;0.0175443;-0.399372
0.00494;0.0258893;0.0186529;-0.399372
0.00496;0.0221785;0.0180662;-0.399372
0.00498;0.0208559;0.0165975;-0.399372
0.005;0.0198042;0.017872;-0.399372
0.00502;0.0164671;0.0182686;-0.399372
0.00504;0.0148628;0.0178559;-0.399356
0.00506;0.0135609;0.0182321;-0.399372
0.00508;0.010642;0.0175402;-0.399372
0.0051;0.00878563;0.0173784;-0.399372
0.00512;0.0073296;0.0189362;-0.399372
0.00514;0.00497701;0.0189766;-0.399372
0.00516;0.00277961;0.0166663;-0.399372
0.00518;0.00145406;0.0184223;-0.399372
0.0052;-0.000792763;0.0168848;-0.399372
0.00522;-0.00309197;0.0170709;-0.399372
0.00524;-0.0046864;0.0194865;-0.399372
0.00526;-0.00656155;0.0181108;-0.399372
0.00528;-0.00906141;0.0175686;-0.399372
0.0053;-0.0107478;0.0182604;-0.399372
0.00532;-0.0128987;0.018398;-0.399372
0.00534;-0.0150565;0.0189564;-0.39934
0.00536;-0.0165758;0.0180581;-0.399372
0.00538;-0.0186002;0.017779;-0.399372
0.0054;-0.0208945;0.0183778;-0.399372
0.00542;-0.0227874;0.0178356;-0.399196
0.00544;-0.0244896;0.0172327;-0.399372
0.00546;-0.0269885;0.0173541;-0.399372
0.00548;-0.0287272;0.0162616;-0.399372
0.0055;-0.0307131;0.0171963;-0.399372
0.00552;-0.0324983;0.0178963;-0.399372
0.00554;-0.0344485;0.0179853;-0.399372
0.00556;-0.0363533;0.0173663;-0.399372
0.00558;-0.0386732;0.0184547;-0.39934
0.0056;-0.0408559;0.0172449;-0.39902
0.00562;-0.042645;0.0171114;-0.399356
0.00564;-0.0445715;0.0176454;-0.399372
0.00566;-0.046343;0.0169738;-0.399196
0.00568;-0.0483277;0.017872;-0.399372
0.0057;-0.0499746;0.0169455;-0.399372
0.00572;-0.0483762;0.0183373;-0.399372
0.00574;-0.0462778;0.0174674;-0.399356
0.00576;-0.0443729;0.0180177;-0.399372
0.00578;-0.0424246;0.0186408;-0.399372
0.0058;-0.0403606;0.0187379;-0.399372
0.00582;-0.0385181;0.0163304;-0.399372
0.00584;-0.0366064;0.0179934;-0.399372
0.00586;-0.0346106;0.0169293;-0.399372
0.00588;-0.0324192;0.0174148;-0.399372
0.0059;-0.030541;0.0173015;-0.399372
0.00592;-0.0285493;0.0173865;-0.399372
0.00594;-0.0266138;0.017953;-0.399372
0.00596;-0.024706;0.0174998;-0.399372
0.00598;-0.0227054;0.017079;-0.399372
0.006;-0.0206977;0.0183819;-0.399372
0.00602;-0.0185705;0.0176009;-0.39934
0.00604;-0.0166835;0.017609;-0.399372
0.00606;-0.0145919;0.01892;-0.399372
0.00608;-0.012703;0.017868;-0.399372
0.0061;-0.0107517;0.0191304;-0.399372
0.00612;-0.00866404;0.0185558;-0.39934
0.00614;-0.00673157;0.0175362;-0.399372
0.00616;-0.00472692;0.0179894;-0.399372
0.00618;-0.00282508;0.0177951;-0.399372
0.0062;-0.000737408;0.0170345;-0.399372
0.00622;0.001116;0.0181472;-0.399372
0.00624;0.00327781;0.0175807;-0.399372
0.00626;0.00514802;0.0171599;-0.399372
0.00628;0.00695694;0.0167634;-0.399372
0.0063;0.00893785;0.0177102;-0.399372
0.00632;0.0110601;0.0184223;-0.399372
0.00634;0.0128927;0.0179206;-0.399372
0.00636;0.0150239;0.0173258;-0.399372
0.00638;0.0169929;0.0181512;-0.399372
0.0064;0.0191113;0.017172;-0.399372
0.00642;0.0210378;0.017257;-0.399372
0.00644;0.0228655;0.0174027;-0.399372
0.00646;0.0250313;0.0179691;-0.399372
0.00648;0.0268857;0.0168119;-0.399372
0.0065;0.0288349;0.0183292;-0.399372
0.00652;0.0309296;0.0189119;-0.399372
0.00654;0.0326001;0.0174512;-0.399372
0.00656;0.034834;0.0189119;-0.399372
0.00658;0.0371629;0.018224;-0.399372
0.0066;0.0387187;0.0173015;-0.399372
0.00662;0.0407984;0.0177587;-0.399372
0.00664;0.0431699;0.0189645;-0.399372
0.00666;0.0446644;0.0175443;-0.399372
0.00668;0.0468165;0.0196766;-0.39934
0.0067;0.0485749;0.017783;-0.399372
0.00672;0.0468818;0.0176212;-0.399372
0.00674;0.045305;0.0191951;-0.399372
0.00676;0.0434408;0.0175726;-0.399372
0.00678;0.0408686;0.0187581;-0.399372
0.0068;0.0393129;0.0180662;-0.399372
0.00682;0.0373042;0.017427;-0.399372
0.00684;0.0350831;0.0180582;-0.399244
0.00686;0.0332674;0.0191021;-0.399308
0.00688;0.0312568;0.0185518;-0.399372
0.0069;0.029172;0.018046;-0.399372
0.00692;0.0273868;0.0184587;-0.399372
0.00694;0.0252656;0.0175038;-0.399372
0.00696;0.0230869;0.0181674;-0.399372
0.00698;0.021449;0.0178518;-0.399356
0.007;0.0192981;0.0167027;-0.399372
0.00702;0.0173537;0.0174269;-0.399372
0.00704;0.0156041;0.0163992;-0.399372
0.00706;0.0136045;0.0170304;-0.399372
0.00708;0.0115138;0.0162657;-0.399372
0.0071;0.00932929;0.0193084;-0.399372
0.00712;0.007295;0.0175079;-0.399372
0.00714;0.00536351;0.0158894;-0.399356
0.00716;0.00352493;0.016994;-0.399372
0.00718;0.00142935;0.0170021;-0.399372
0.0072;-0.000518953;0.0185113;-0.399372
0.00722;-0.00235951;0.017172;-0.399372
0.00724;-0.00415954;0.0171559;-0.399372
0.00726;-0.00631542;0.0179691;-0.399372
0.00728;-0.00847821;0.0182443;-0.399372
0.0073;-0.0103968;0.0172287;-0.399372
0.00732;-0.0123945;0.0173015;-0.399372
0.00734;-0.0145069;0.0172732;-0.399372
0.00736;-0.0164809;0.0175119;-0.399372
0.00738;-0.0183205;0.0184426;-0.399372
0.0074;-0.0203123;0.0167876;-0.399372
0.00742;-0.0223228;0.0175888;-0.399372
0.00744;-0.0246339;0.0178639;-0.399372
0.00746;-0.0264804;0.015853;-0.399372
0.00748;-0.0285315;0.0179327;-0.399372
0.0075;-0.0302455;0.0167796;-0.399372
0.00752;-0.032003;0.0173177;-0.399356
0.00754;-0.0339108;0.018305;-0.399228
0.00756;-0.036126;0.0180581;-0.399372
0.00758;-0.0383728;0.0172044;-0.399308
0.0076;-0.0402865;0.0190495;-0.39934
0.00762;-0.0420104;0.0161524;-0.399372
0.00764;-0.0440705;0.0165853;-0.399372
0.00766;-0.0460435;0.0174877;-0.399372
0.00768;-0.0480124;0.0172003;-0.399372
0.0077;-0.0499362;0.0165975;-0.399372
0.00772;-0.0487665;0.0167553;-0.399372
0.00774;-0.0467385;0.0178194;-0.399372
0.00776;-0.0448216;0.017435;-0.399372
0.00778;-0.042831;0.0180501;-0.399372
0.0078;-0.0406898;0.0186529;-0.399372
0.00782;-0.0390241;0.0181593;-0.399372
0.00784;-0.037061;0.0177871;-0.399372
0.00786;-0.034929;0.0179489;-0.399356
0.00788;-0.0330647;0.0173096;-0.399372
0.0079;-0.030891;0.0172611;-0.399372
0.00792;-0.0290168;0.0178923;-0.399372
0.00794;-0.0271357;0.0166015;-0.399324
0.00796;-0.0249808;0.0170223;-0.399372
0.00798;-0.0231027;0.0181391;-0.399372
0.008;-0.0212464;0.0180379;-0.399372
0.00802;-0.0190707;0.017783;-0.399308
0.00804;-0.0170038;0.0181795;-0.399372
0.00806;-0.0153165;0.0165854;-0.399372
0.00808;-0.0130697;0.0186813;-0.399372
0.0081;-0.0109375;0.017779;-0.399372
0.00812;-0.00922054;0.017168;-0.399372
0.00814;-0.00730686;0.0177871;-0.399372
0.00816;-0.00507487;0.0182281;-0.399372
0.00818;-0.00315425;0.0150235;-0.399372
0.0082;-0.00126526;0.0173622;-0.399372
0.00822;0.000881727;0.0188755;-0.399244
0.00824;0.00286166;0.0177709;-0.399372
0.00826;0.00472791;0.0179449;-0.399372
0.00828;0.00662877;0.0158004;-0.399372
0.0083;0.00853554;0.0170668;-0.399372
0.00832;0.0107991;0.0169374;-0.399372
0.00834;0.0127118;0.0181714;-0.399372
0.00836;0.0145297;0.0175443;-0.399372
0.00838;0.016729;0.0171963;-0.399372
0.0084;0.0185904;0.0198628;-0.399372
0.00842;0.0207383;0.0174189;-0.399356
0.00844;0.0227133;0.0184183;-0.399372
0.00846;0.0246319;0.0187946;-0.399372
0.00848;0.0263816;0.0179125;-0.399372
0.0085;0.0284999;0.01699;-0.39934
0.00852;0.030468;0.0183738;-0.399372
0.00854;0.0324291;0.0158206;-0.399372
0.00856;0.0343329;0.0179408;-0.399372
0.00858;0.0364817;0.0188026;-0.399372
0.0086;0.0384164;0.0179934;-0.399276
0.00862;0.0403181;0.0168605;-0.399372
0.00864;0.0426649;0.020231;-0.399372
0.00866;0.0445459;0.017609;-0.399324
0.00868;0.0462798;0.0175726;-0.399356
0.0087;0.0483682;0.0192073;-0.399372
0.00872;0.047623;0.017787;-0.399372
0.00874;0.045303;0.0161524;-0.399372
0.00876;0.0436405;0.0187217;-0.399372
0.00878;0.0416337;0.0172368;-0.399372
0.0088;0.0394038;0.0175362;-0.399308
0.00882;0.037842;0.0176171;-0.399372
0.00884;0.035619;0.0171882;-0.399372
0.00886;0.0333157;0.0160229;-0.399372
0.00888;0.031752;0.0185477;-0.399324
0.0089;0.0295299;0.0183333;-0.399324
0.00892;0.0274936;0.0184951;-0.39934
0.00894;0.0258695;0.0179368;-0.399372
0.00896;0.0237522;0.0170062;-0.399372
0.00898;0.0215973;0.0186408;-0.399308
0.009;0.0197864;0.0181795;-0.399164
0.00902;0.0177531;0.0190738;-0.399228
0.00904;0.0159402;0.0178639;-0.399372
0.00906;0.0140977;0.0183293;-0.39934
0.00908;0.0117955;0.0170264;-0.399372
0.0091;0.00970192;0.0176576;-0.399372
0.00912;0.0078614;0.0175564;-0.399372
0.00914;0.00591409;0.0175726;-0.399372
0.00916;0.00386596;0.0183333;-0.399372
0.00918;0.00182078;0.0181107;-0.399324
0.0092;7.4136e-05;0.017872;-0.399372
0.00922;-0.00191963;0.0174634;-0.399372
0.00924;-0.00394701;0.0183009;-0.399372
0.00926;-0.00600009;0.0169293;-0.399372
0.00928;-0.00802747;0.0185842;-0.399372
0.0093;-0.0100716;0.0177587;-0.399372
0.00932;-0.0118361;0.0184911;-0.399372
0.00934;-0.0140878;0.0177466;-0.399372
0.00936;-0.0160825;0.0169131;-0.399372
0.00938;-0.0178401;0.0190009;-0.399372
0.0094;-0.0198022;0.0182686;-0.399372
0.00942;-0.0218177;0.0173986;-0.399372
0.00944;-0.0237838;0.0168929;-0.399372
0.00946;-0.0260405;0.0166339;-0.399372
0.00948;-0.0279957;0.0170709;-0.399372
0.0095;-0.0298807;0.0168645;-0.399372
0.00952;-0.031757;0.0175969;-0.399372
0.00954;-0.0336588;0.0165651;-0.399372
0.00956;-0.0357188;0.0177344;-0.399308
0.00958;-0.0378153;0.0165166;-0.399372
0.0096;-0.0397982;0.0174917;-0.399372
0.00962;-0.0417347;0.0175686;-0.399372
0.00964;-0.0437589;0.0183333;-0.399372
0.00966;-0.0457172;0.0171842;-0.399372
0.00968;-0.0475824;0.0172853;-0.399356
0.0097;-0.0496693;0.0164113;-0.399372
0.00972;-0.0490285;0.0164114;-0.399372
0.00974;-0.0471121;0.0176009;-0.399372
0.00976;-0.0452337;0.0177628;-0.399372
0.00978;-0.0431996;0.0187824;-0.399372
0.0098;-0.0410032;0.0153674;-0.399372
0.00982;-0.0393159;0.0179287;-0.399372
0.00984;-0.0373882;0.0159258;-0.399372
0.00986;-0.0355824;0.016994;-0.399372
0.00988;-0.0327444;0.0212506;-0.399372
0.0099;-0.0319921;0.0148091;-0.399372
0.00992;-0.0295002;0.0184749;-0.399372
0.00994;-0.0266098;0.022165;-0.399356
0.00996;-0.0260168;0.0134212;-0.399356
0.00998;-0.0239203;0.0179812;-0.399372
0.01;-0.0204981;0.0194298;-0.399372
0.01002;-0.0201146;0.0144044;-0.399356
0.01004;-0.0178342;0.0190454;-0.399372
0.01006;-0.0145316;0.020761;-0.399372
0.01008;-0.0142193;0.016561;-0.399372
0.0101;-0.0118954;0.0181755;-0.399372
0.01012;-0.00850193;0.0177304;-0.399372
0.01014;-0.00832104;0.0167067;-0.399372
0.01016;-0.00588543;0.0193691;-0.399308
0.01018;-0.00274798;0.0185356;-0.399372
0.0102;-0.00200761;0.0164559;-0.399372
0.01022;0.000205604;0.0185437;-0.39934
0.01024;0.00288933;0.0176495;-0.399372
0.01026;0.00378589;0.0175119;-0.399372
0.01028;0.00624128;0.0180784;-0.398987
0.0103;0.00866899;0.018746;-0.399372
0.01032;0.00983834;0.0183697;-0.399372
0.01034;0.0122176;0.0182119;-0.398652
0.01036;0.0144071;0.0178923;-0.399372
0.01038;0.0161112;0.0169697;-0.399372
0.0104;0.0177254;0.018746;-0.399372
0.01042;0.0204734;0.0193974;-0.39934
