t;vds;corrente;vg
0;0.00908223;0.00370241;-0.000455566
2e-05;0.0110136;0.00463889;-0.000505032
4e-05;0.0129854;0.00560898;-0.000465938
6e-05;0.0149314;0.0066457;-0.000486681
8e-05;0.0168204;0.00758463;-0.000416472
0.0001;0.0186935;0.00857102;-0.000400515
0.00012;0.0206001;0.00949019;-0.000440407
0.00014;0.0225818;0.0104809;-0.000438013
0.00016;0.0244144;0.0114338;-0.000401313
0.00018;0.0263863;0.0123741;-0.000426844
0.0002;0.0283689;0.0133822;-0.000408493
0.00022;0.0303811;0.014382;-0.00044679
0.00024;0.0323409;0.0153337;-0.000447587
0.00026;0.0343454;0.0162776;-0.000410089
0.00028;0.0363331;0.01727;-0.000418067
0.0003;0.0382357;0.0182385;-0.000400515
0.00032;0.0401738;0.0192121;-0.000438811
0.00034;0.0420756;0.0201425;-0.000418067
0.00036;0.0440443;0.0211165;-0.000444396
0.00038;0.0459075;0.022091;-0.000464342
0.0004;0.0477266;0.0230103;-0.00042445
0.00042;0.0472092;0.0227376;-0.000418067
0.00044;0.0452622;0.0217852;-0.000448385
0.00046;0.0434256;0.0208049;-0.0004061
0.00048;0.041437;0.0198087;-0.000440407
0.0005;0.0394545;0.0188663;-0.000429237
0.00052;0.0375715;0.0178958;-0.000450779
0.00054;0.0355838;0.0168935;-0.000418067
0.00056;0.0335845;0.015913;-0.000418865
0.00058;0.0316551;0.0149935;-0.000416472
0.0006;0.0296736;0.0140219;-0.000402111
0.00062;0.0276979;0.013038;-0.000433226
0.00064;0.0256836;0.0120398;-0.000441205
0.00066;0.023764;0.0111048;-0.000452374
0.00068;0.0218881;0.0101239;-0.000466735
0.0007;0.0199341;0.00918697;-0.000449981
0.00072;0.0180638;0.00823756;-0.000414078
0.00074;0.0162183;0.00723643;-0.000410887
0.00076;0.0142653;0.00627923;-0.000414078
0.00078;0.012338;0.00528102;-0.000399717
0.0008;0.0103149;0.00427041;-0.00041328
0.00082;0.00827697;0.0033621;-0.000421259
0.00084;0.00640487;0.00237625;-0.000421259
0.00086;0.00446857;0.00134643;-0.000440407
0.00088;0.00240898;0.000413903;-0.000416472
0.0009;0.000520084;-0.000553685;-0.000449183
0.00092;-0.00143097;-0.00150942;-0.000447587
0.00094;-0.0033238;-0.00251257;-0.000471522
0.00096;-0.00532422;-0.003453;-0.000450779
0.00098;-0.007372;-0.00440379;-0.000434822
0.001;-0.00931416;-0.00536298;-0.000451577
0.00102;-0.011284;-0.00636216;-0.000415674
0.00104;-0.0132874;-0.0073234;-0.000459555
0.00106;-0.0152897;-0.00833243;-0.000431631
0.00108;-0.0171352;-0.00925063;-0.000452375
0.0011;-0.0190231;-0.0102464;-0.000458757
0.00112;-0.0209524;-0.0111987;-0.000416472
0.00114;-0.022869;-0.0121633;-0.000493862
0.00116;-0.0247292;-0.0131318;-0.000439609
0.00118;-0.026713;-0.0141212;-0.000409291
0.0012;-0.0286511;-0.0151001;-0.000510617
0.00122;-0.0305232;-0.0160613;-0.000441205
0.00124;-0.032565;-0.0170526;-0.000426844
0.00126;-0.0344875;-0.0180652;-0.000429237
0.00128;-0.0364911;-0.0190649;-0.000487479
0.0013;-0.0384399;-0.020021;-0.000454768
0.00132;-0.0403564;-0.0210286;-0.000451577
0.00134;-0.0423766;-0.0219878;-0.000414078
0.00136;-0.0443613;-0.022956;-0.000430035
0.00138;-0.0462491;-0.0239073;-0.000418067
0.0014;-0.0481983;-0.0248957;-0.000439609
0.00142;-0.047926;-0.0247217;-0.000431631
0.00144;-0.04596;-0.0237616;-0.000412482
0.00146;-0.0440869;-0.0228053;-0.000441205
0.00148;-0.0420291;-0.0218247;-0.000414078
0.0015;-0.0400643;-0.0208632;-0.000434024
0.00152;-0.0380849;-0.0198646;-0.000445992
0.00154;-0.0361642;-0.018926;-0.000430035
0.00156;-0.0342585;-0.017921;-0.000439609
0.00158;-0.0322562;-0.016894;-0.000433226
0.0016;-0.0303121;-0.0159135;-0.00042445
0.00162;-0.0283609;-0.0149554;-0.000433226
0.00164;-0.0263506;-0.0139483;-0.000414078
0.00166;-0.0244303;-0.0129783;-0.00041328
0.00168;-0.0225315;-0.0120354;-0.000398121
0.0017;-0.0206642;-0.0110692;-0.000451577
0.00172;-0.0186668;-0.0101057;-0.000407695
0.00174;-0.0168727;-0.00912127;-0.000425248
0.00176;-0.0149809;-0.00821928;-0.000437216
0.00178;-0.0129804;-0.00720975;-0.000450779
0.0018;-0.0109435;-0.00622538;-0.000438013
0.00182;-0.0090319;-0.00522621;-0.000439609
0.00184;-0.00701178;-0.00426102;-0.000432429
0.00186;-0.00499954;-0.0033058;-0.00045397
0.00188;-0.00299912;-0.00234316;-0.000408493
0.0019;-0.00109149;-0.00137606;-0.00042445
0.00192;0.000806279;-0.000371426;-0.000400515
0.00194;0.00270603;0.000500343;-0.000416472
0.00196;0.00471927;0.00148028;-0.000449981
0.00198;0.0066822;0.00251455;-0.000430035
0.002;0.00865492;0.00349794;-0.000423652
0.00202;0.010684;0.0044191;-0.000400515
0.00204;0.0126054;0.00542176;-0.000411685
0.00206;0.0145466;0.00642194;-0.000422057
0.00208;0.016477;0.00742069;-0.000405302
0.0021;0.0183056;0.0083754;-0.0004061
0.00212;0.0201926;0.00930299;-0.000439609
0.00214;0.0221604;0.0102834;-0.000422854
0.00216;0.0240956;0.0112332;-0.000438013
0.00218;0.0260339;0.0122216;-0.000399717
0.0022;0.0279771;0.0132049;-0.000411685
0.00222;0.0299823;0.014176;-0.000402111
0.00224;0.0319867;0.0151302;-0.000415674
0.00226;0.0339102;0.0160978;-0.000432428
0.00228;0.0359688;0.0170872;-0.000398121
0.0023;0.0378687;0.0180553;-0.000406898
0.00232;0.0397772;0.0190495;-0.000423652
0.00234;0.0417402;0.0199859;-0.000437215
0.00236;0.043678;0.020956;-0.000421259
0.00238;0.0455829;0.0219354;-0.000429237
0.0024;0.0474896;0.0228834;-0.000398121
0.00242;0.0475884;0.0229377;-0.000407696
0.00244;0.045662;0.0219611;-0.00041328
0.00246;0.0437995;0.021;-0.00043562
0.00248;0.0418692;0.0200449;-0.000414078
0.0025;0.0398976;0.0190514;-0.000438013
0.00252;0.0379981;0.0181037;-0.000423652
0.00254;0.0360458;0.0171045;-0.000457162
0.00256;0.034066;0.0161713;-0.000440407
0.00258;0.0321022;0.0151995;-0.000408493
0.0026;0.0300773;0.014219;-0.000404504
0.00262;0.0280709;0.0132375;-0.000415674
0.00264;0.026169;0.0122581;-0.00041727
0.00266;0.0242043;0.0112866;-0.000461948
0.00268;0.0223144;0.0103274;-0.000423652
0.0027;0.020312;0.00938498;-0.000426844
0.00272;0.018347;0.00840798;-0.000438811
0.00274;0.0165293;0.00741968;-0.000430833
0.00276;0.0145634;0.00643728;-0.000462746
0.00278;0.0126419;0.00548792;-0.000485086
0.0028;0.0106948;0.00446948;-0.000426046
0.00282;0.00874868;0.00355325;-0.000407695
0.00284;0.00674632;0.00255456;-0.000457161
0.00286;0.00485249;0.00158154;-0.000433226
0.00288;0.0028047;0.000623822;-0.000446789
0.0029;0.000867466;-0.00035266;-0.000412483
0.00292;-0.00102142;-0.00129358;-0.000416472
0.00294;-0.00291031;-0.0022824;-0.00041328
0.00296;-0.00489001;-0.00326728;-0.000409291
0.00298;-0.006997;-0.00420278;-0.000422854
0.003;-0.00886609;-0.00515999;-0.00044679
0.00302;-0.0108913;-0.00614087;-0.000468331
0.00304;-0.0129055;-0.00717125;-0.000509819
0.00306;-0.0148387;-0.00813435;-0.000436418
0.00308;-0.0167435;-0.00903086;-0.000428439
0.0031;-0.0186432;-0.0100542;-0.000416472
0.00312;-0.0205676;-0.0109897;-0.00041727
0.00314;-0.0224495;-0.0119623;-0.000410887
0.00316;-0.0244095;-0.0129021;-0.000431631
0.00318;-0.0262185;-0.0138416;-0.000410089
0.0032;-0.0281982;-0.014916;-0.000485086
0.00322;-0.0302123;-0.0158953;-0.000473916
0.00324;-0.0321446;-0.016819;-0.000431631
0.00326;-0.0341105;-0.0177837;-0.000455566
0.00328;-0.0361021;-0.0188282;-0.000418067
0.0033;-0.0380413;-0.0197834;-0.000414078
0.00332;-0.0399814;-0.0207797;-0.000478703
0.00334;-0.0419483;-0.0217863;-0.000422854
0.00336;-0.0440068;-0.0227199;-0.000430035
0.00338;-0.0458681;-0.0237083;-0.00041727
0.0034;-0.0478717;-0.0246852;-0.000429237
0.00342;-0.0482535;-0.0248937;-0.000428439
0.00344;-0.046342;-0.0239666;-0.00047631
0.00346;-0.0444729;-0.0229619;-0.000438811
0.00348;-0.0424417;-0.0220031;-0.000445194
0.0035;-0.0403663;-0.0210271;-0.00045397
0.00352;-0.0384629;-0.0200444;-0.000410089
0.00354;-0.0365372;-0.0190915;-0.000409291
0.00356;-0.0345537;-0.0180692;-0.0004428
0.00358;-0.0326559;-0.0170896;-0.000404504
0.0036;-0.0306377;-0.0161022;-0.000402908
0.00362;-0.0287566;-0.0151382;-0.000427641
0.00364;-0.0267435;-0.0141543;-0.000418865
0.00366;-0.0248013;-0.0131664;-0.000418067
0.00368;-0.0228876;-0.0121939;-0.000407695
0.0037;-0.020983;-0.0112238;-0.000398121
0.00372;-0.0190626;-0.0102474;-0.000415674
0.00374;-0.0172083;-0.00929956;-0.000403706
0.00376;-0.0153342;-0.0083324;-0.00041328
0.00378;-0.0133978;-0.00736485;-0.000407695
0.0038;-0.0113185;-0.00635332;-0.000400515
0.00382;-0.00933587;-0.00536053;-0.0004061
0.00384;-0.00741246;-0.00439539;-0.000418067
0.00386;-0.0053785;-0.00348707;-0.000404504
0.00388;-0.00342152;-0.00250418;-0.000403706
0.0039;-0.0014369;-0.00152474;-0.000403706
0.00392;0.000429293;-0.000615426;-0.000408493
0.00394;0.00227673;0.000338336;-0.000445992
0.00396;0.00434424;0.00131482;-0.000414876
0.00398;0.00631112;0.00235056;-0.000409291
0.004;0.00827497;0.00331273;-0.000426046
0.00402;0.0102793;0.00424871;-0.00041328
0.00404;0.0122096;0.00528741;-0.000407695
0.00406;0.0141677;0.00622484;-0.0004061
0.00408;0.0160852;0.00721867;-0.000445992
0.0041;0.0179079;0.00820499;-0.000422057
0.00412;0.0198285;0.00913607;-0.000420461
0.00414;0.0217548;0.0100908;-0.000392537
0.00416;0.0237432;0.0110618;-0.000421259
0.00418;0.0256689;0.0120502;-0.000421259
0.0042;0.0276188;0.0130444;-0.000446789
0.00422;0.0296005;0.0139903;-0.000436418
0.00424;0.0316029;0.0149738;-0.000460353
0.00426;0.0335214;0.0159126;-0.00041328
0.00428;0.0355375;0.0168817;-0.000427641
0.0043;0.0374966;0.017883;-0.000427641
0.00432;0.0393825;0.0188688;-0.000418865
0.00434;0.0413622;0.0197992;-0.000447587
0.00436;0.0433338;0.0207723;-0.000404504
0.00438;0.0452438;0.0217517;-0.000398121
0.0044;0.0471421;0.0227381;-0.000410887
0.00442;0.0479032;0.0230967;-0.000414078
0.00444;0.0461141;0.022174;-0.000403706
0.00446;0.0442064;0.0212542;-0.000411685
0.00448;0.0423104;0.0202601;-0.000408493
0.0045;0.0403347;0.0192866;-0.000402908
0.00452;0.0384293;0.0183497;-0.000416472
0.00454;0.0364514;0.0173376;-0.000414876
0.00456;0.0344401;0.0163516;-0.00041727
0.00458;0.0324684;0.0153812;-0.00041328
0.0046;0.0305026;0.0144585;-0.000422057
0.00462;0.0284941;0.0134464;-0.000401313
0.00464;0.0264878;0.012433;-0.000434822
0.00466;0.0245813;0.0115281;-0.000462746
0.00468;0.0226873;0.0105461;-0.000485086
0.0047;0.0207165;0.00955487;-0.000425248
0.00472;0.0188306;0.0086347;-0.000402111
0.00474;0.0169675;0.00765283;-0.000452374
0.00476;0.0150105;0.00667531;-0.000454768
0.00478;0.0130869;0.00571514;-0.000414876
0.0048;0.0111794;0.00474015;-0.000399717
0.00482;0.00917007;0.00374984;-0.000414876
0.00484;0.00715488;0.00276745;-0.000438811
0.00486;0.00518904;0.00177762;-0.000449981
0.00488;0.00320045;0.000801139;-0.000469129
0.0049;0.00128887;-0.0001625;-0.000425248
0.00492;-0.000631603;-0.0011128;-0.000415674
0.00494;-0.00254221;-0.0021046;-0.000421259
0.00496;-0.00450511;-0.00304946;-0.000441205
0.00498;-0.00652134;-0.0039731;-0.000436418
0.005;-0.00850689;-0.00495501;-0.000400515
0.00502;-0.0104955;-0.00596359;-0.000402111
0.00504;-0.0124949;-0.00691933;-0.000408493
0.00506;-0.0144588;-0.00792097;-0.000401313
0.00508;-0.0163477;-0.00881603;-0.00041328
0.0051;-0.0182365;-0.00979933;-0.000401313
0.00512;-0.0201305;-0.0107714;-0.000398919
0.00514;-0.0220381;-0.011745;-0.000432428
0.00516;-0.0239505;-0.0127189;-0.000407695
0.00518;-0.0258967;-0.0136657;-0.000405302
0.0052;-0.0278696;-0.0146749;-0.000409291
0.00522;-0.0298304;-0.0156755;-0.000410089
0.00524;-0.0317608;-0.0166248;-0.00042445
0.00526;-0.0337365;-0.0176163;-0.000447587
0.00528;-0.0356796;-0.0186326;-0.000458757
0.0053;-0.0375854;-0.0196085;-0.00042445
0.00532;-0.0395681;-0.020594;-0.000406898
0.00534;-0.0415626;-0.0215793;-0.0004428
0.00536;-0.0435843;-0.0225351;-0.000418067
0.00538;-0.0455465;-0.0235157;-0.000415674
0.0054;-0.047456;-0.0244896;-0.000454768
0.00542;-0.0485377;-0.0250147;-0.000448385
0.00544;-0.0467081;-0.0241078;-0.000422854
0.00546;-0.0448861;-0.0231703;-0.000408493
0.00548;-0.042892;-0.0221942;-0.000411685
0.0055;-0.0408392;-0.0212004;-0.000422854
0.00552;-0.0389333;-0.0202108;-0.000414876
0.00554;-0.0369664;-0.0192515;-0.000454768
0.00556;-0.0349534;-0.0182702;-0.000400515
0.00558;-0.0331078;-0.017269;-0.000421259
0.0056;-0.0310364;-0.0163067;-0.000414078
0.00562;-0.0291544;-0.0153393;-0.000418067
0.00564;-0.027158;-0.0143474;-0.000428439
0.00566;-0.0251752;-0.0133071;-0.000400515
0.00568;-0.0233673;-0.0123544;-0.000398121
0.0057;-0.0213708;-0.0114451;-0.000423652
0.00572;-0.0194653;-0.0104385;-0.000416472
0.00574;-0.017602;-0.00948919;-0.000452374
0.00576;-0.0157348;-0.00852308;-0.000409291
0.00578;-0.0138212;-0.00758861;-0.000452374
0.0058;-0.0118574;-0.00658051;-0.000412482
0.00582;-0.00977508;-0.00557238;-0.000416472
0.00584;-0.00782598;-0.00461421;-0.000443598
0.00586;-0.00586796;-0.00369106;-0.000408493
0.00588;-0.0038212;-0.00275016;-0.000426844
0.0059;-0.00191455;-0.00176379;-0.000410887
0.00592;-1.18427e-05;-0.000795214;-0.00041328
0.00594;0.00182079;0.000153609;-0.000422854
0.00596;0.00385967;0.0011054;-0.000429237
0.00598;0.00590153;0.00207249;-0.000434024
0.006;0.00779732;0.00308552;-0.000432428
0.00602;0.00977898;0.00405707;-0.000444396
0.00604;0.011807;0.00506565;-0.000432428
0.00606;0.0137542;0.00605593;-0.000410887
0.00608;0.0156786;0.00702158;-0.00042445
0.0061;0.0175229;0.00796197;-0.000473118
0.00612;0.0193705;0.00894245;-0.000452375
0.00614;0.0213787;0.00988134;-0.000437216
0.00616;0.0232972;0.0108964;-0.0004428
0.00618;0.0252237;0.0118314;-0.000415674
0.0062;0.0271619;0.0128379;-0.000420461
0.00622;0.0291673;0.0137976;-0.000412483
0.00624;0.0311806;0.0147989;-0.000432428
0.00626;0.0330792;0.0157002;-0.000398121
0.00628;0.0350913;0.0166757;-0.000400515
0.0063;0.0371214;0.0176632;-0.000404504
0.00632;0.0389995;0.0186608;-0.000399717
0.00634;0.0409505;0.0196209;-0.000410089
0.00636;0.0429383;0.0205965;-0.000399717
0.00638;0.0447759;0.0215279;-0.000398121
0.0064;0.0466756;0.0224931;-0.000410887
0.00642;0.0480146;0.0231501;-0.000401313
0.00644;0.0464298;0.0223528;-0.000431631
0.00646;0.0445468;0.0213738;-0.000429237
0.00648;0.0426264;0.0203974;-0.000420461
0.0065;0.0406339;0.0194432;-0.000410887
0.00652;0.0387409;0.0184988;-0.000399717
0.00654;0.0368174;0.0175228;-0.000410887
0.00656;0.034833;0.0165354;-0.00041328
0.00658;0.0328878;0.0155793;-0.000410887
0.0066;0.0309268;0.0146181;-0.000398919
0.00662;0.0289017;0.0136375;-0.000408493
0.00664;0.0269093;0.0127027;-0.00042445
0.00666;0.0250016;0.0116941;-0.000403706
0.00668;0.0230683;0.0107703;-0.000433226
0.0067;0.0211458;0.00977914;-0.000402111
0.00672;0.0191326;0.00880512;-0.000423652
0.00674;0.0173198;0.00782422;-0.000400515
0.00676;0.0153361;0.0068289;-0.000432428
0.00678;0.0134649;0.00587222;-0.000408493
0.0068;0.0115209;0.00488882;-0.000408493
0.00682;0.00949873;0.00393012;-0.000400515
0.00684;0.00757136;0.0029581;-0.000448385
0.00686;0.00556598;0.00196234;-0.000427642
0.00688;0.00360705;0.000980924;-0.000439609
0.0069;0.00165401;6.7667e-05;-0.000403706
0.00692;-0.000217114;-0.000907331;-0.000402111
0.00694;-0.0022412;-0.00191592;-0.000405302
0.00696;-0.00415179;-0.00289091;-0.00041328
0.00698;-0.00610385;-0.00382195;-0.000405302
0.007;-0.00809139;-0.00474705;-0.000398121
0.00702;-0.0100839;-0.00578136;-0.000415674
0.00704;-0.012106;-0.00676671;-0.000401313
0.00706;-0.01407;-0.00770462;-0.000431631
0.00708;-0.0160062;-0.00864759;-0.000419663
0.0071;-0.017899;-0.00964375;-0.000441205
0.00712;-0.019788;-0.0105975;-0.000407695
0.00714;-0.0217074;-0.0115711;-0.000421259
0.00716;-0.0235893;-0.0125198;-0.000398121
0.00718;-0.0254962;-0.0135161;-0.000409291
0.0072;-0.0275092;-0.0145045;-0.000416472
0.00722;-0.0294308;-0.0154586;-0.000431631
0.00724;-0.0313424;-0.0164529;-0.000415674
0.00726;-0.0333753;-0.017435;-0.000402908
0.00728;-0.0353084;-0.0184582;-0.000414876
0.0073;-0.0372043;-0.0194101;-0.000401313
0.00732;-0.0391555;-0.0203841;-0.000398121
0.00734;-0.0411242;-0.0213609;-0.000406898
0.00736;-0.0431198;-0.0223029;-0.0004061
0.00738;-0.045084;-0.0232909;-0.000398121
0.0074;-0.0470346;-0.0242797;-0.000408493
0.00742;-0.048603;-0.0250424;-0.0004061
0.00744;-0.0471362;-0.0243379;-0.000398121
0.00746;-0.0451841;-0.0233185;-0.000403706
0.00748;-0.0432827;-0.022382;-0.000398121
0.0075;-0.0412437;-0.0213915;-0.000399717
0.00752;-0.0392571;-0.0204295;-0.000398121
0.00754;-0.0373347;-0.0195025;-0.000402908
0.00756;-0.0353588;-0.0184638;-0.000428439
0.00758;-0.0334167;-0.0174803;-0.000401313
0.0076;-0.0314133;-0.0165181;-0.000412482
0.00762;-0.0295275;-0.0155397;-0.000405302
0.00764;-0.0275637;-0.0145218;-0.000402111
0.00766;-0.0255997;-0.0135155;-0.000410887
0.00768;-0.0237166;-0.0125679;-0.000418067
0.0077;-0.0217391;-0.0115973;-0.000426046
0.00772;-0.0198393;-0.0106232;-0.000398121
0.00774;-0.0179207;-0.00964971;-0.000410887
0.00776;-0.0160545;-0.00864112;-0.000400515
0.00778;-0.014142;-0.00772544;-0.000403706
0.0078;-0.0122216;-0.00679482;-0.000402908
0.00782;-0.0101876;-0.00579516;-0.000400515
0.00784;-0.00823157;-0.00481325;-0.000414078
0.00786;-0.0062756;-0.00384073;-0.000401313
0.00788;-0.00422186;-0.00293093;-0.000401313
0.0079;-0.00225404;-0.00195691;-0.000401313
0.00792;-0.000392777;-0.000954252;-0.000445992
0.00794;0.00147538;4.93902e-07;-0.000436418
0.00796;0.00351525;0.000936472;-0.000410887
0.00798;0.00552455;0.00193419;-0.000415674
0.008;0.00743219;0.00293092;-0.000419663
0.00802;0.00941878;0.00389209;-0.00041727
0.00804;0.0114636;0.00485276;-0.000420461
0.00806;0.0133663;0.00585198;-0.000398919
0.00808;0.0153104;0.00682055;-0.000398121
0.0081;0.0171687;0.00777279;-0.000426844
0.00812;0.0189974;0.0087617;-0.000415674
0.00814;0.0210609;0.0096956;-0.00041328
0.00816;0.0229874;0.0107062;-0.000408493
0.00818;0.0248634;0.0116689;-0.000416472
0.0082;0.0267781;0.0126408;-0.000439609
0.00822;0.0287547;0.0135936;-0.000434024
0.00824;0.0307285;0.0145934;-0.000422854
0.00826;0.0327071;0.0155401;-0.000410089
0.00828;0.0346671;0.0164569;-0.000418865
0.0083;0.0366253;0.0174607;-0.000524979
0.00832;0.0385552;0.0184108;-0.000491469
0.00834;0.040541;0.0193888;-0.000477107
0.00836;0.042428;0.0203421;-0.000419663
0.00838;0.044384;0.0213061;-0.000407695
0.0084;0.0461977;0.0222585;-0.000409291
0.00842;0.0479099;0.0231002;-0.000446789
0.00844;0.0467308;0.0225237;-0.000477905
0.00846;0.0449166;0.0216074;-0.000414876
0.00848;0.0430322;0.0206018;-0.000416472
0.0085;0.0410158;0.0196349;-0.000403706
0.00852;0.039111;0.018681;-0.000477107
0.00854;0.0371333;0.0176957;-0.000452374
0.00856;0.0351695;0.0167216;-0.000423652
0.00858;0.033164;0.0157486;-0.000410887
0.0086;0.0312761;0.0148305;-0.000401313
0.00862;0.0292669;0.013885;-0.00041727
0.00864;0.0273248;0.0128504;-0.000398121
0.00866;0.0253786;0.0118862;-0.000405302
0.00868;0.0233959;0.0109403;-0.000429237
0.0087;0.0214745;0.00992882;-0.000412482
0.00872;0.019487;0.00899826;-0.000419663
0.00874;0.0176523;0.00801631;-0.0004061
0.00876;0.0157989;0.00705958;-0.000399717
0.00878;0.0138755;0.00609449;-0.000415674
0.0088;0.0119304;0.00507604;-0.0004428
0.00882;0.00991524;0.00410249;-0.000420461
0.00884;0.00794342;0.00321789;-0.000423652
0.00886;0.00602095;0.00216831;-0.000402908
0.00888;0.00400081;0.00113848;-0.000422854
0.0089;0.00197376;0.000230661;-0.000428439
0.00892;0.000112504;-0.000744338;-0.000449183
0.00894;-0.00181487;-0.00174847;-0.000440407
0.00896;-0.00374125;-0.00268445;-0.000408493
0.00898;-0.00575645;-0.00367377;-0.00044679
0.009;-0.0077914;-0.00457765;-0.000440407
0.00902;-0.00976812;-0.00561045;-0.000445194
0.00904;-0.0117665;-0.00654148;-0.000422854
0.00906;-0.0138154;-0.00753821;-0.000407695
0.00908;-0.0156164;-0.00846531;-0.000426844
0.0091;-0.0174983;-0.00941363;-0.000411685
0.00912;-0.0193627;-0.0103975;-0.000416472
0.00914;-0.0212869;-0.0113706;-0.000455566
0.00916;-0.0232775;-0.0123124;-0.000423652
0.00918;-0.0251951;-0.0132998;-0.000440407
0.0092;-0.0270701;-0.0143129;-0.000464342
0.00922;-0.0290706;-0.0153139;-0.000427641
0.00924;-0.0309713;-0.0162736;-0.000407695
0.00926;-0.0329786;-0.017229;-0.000399717
0.00928;-0.0349334;-0.0183022;-0.000484288
0.0093;-0.0368591;-0.0192669;-0.00046514
0.00932;-0.0388425;-0.0202522;-0.000426046
0.00934;-0.0407531;-0.0212034;-0.000416472
0.00936;-0.0427932;-0.0221454;-0.000402111
0.00938;-0.0448371;-0.0231338;-0.000430833
0.0094;-0.046641;-0.0241197;-0.000426046
0.00942;-0.0485349;-0.0250211;-0.000434024
0.00944;-0.0475578;-0.0245242;-0.000410887
0.00946;-0.0456067;-0.0235487;-0.00041727
0.00948;-0.0436841;-0.0225781;-0.000398121
