t;vds;corrente;vg
0.000499;-0.0399943;-0.0284073;0.568847
0.000998;-0.0403941;-0.0289206;0.574561
0.001497;-0.0408725;-0.029467;0.572619
0.001996;-0.0413254;-0.0289868;0.574497
0.002495;-0.0418114;-0.0288213;0.573383
0.002994;-0.0423716;-0.0292394;0.571919
0.003493;-0.0429086;-0.0297942;0.573097
0.003992;-0.0433625;-0.0305725;0.57176
0.004491;-0.0438785;-0.0307091;0.571824
0.00499;-0.0444016;-0.0309285;0.572428
0.005489;-0.044825;-0.0306884;0.571983
0.005988;-0.0453207;-0.0309575;0.572237
0.006487;-0.0458219;-0.0310403;0.573574
0.006986;-0.0462883;-0.0309948;0.574846
0.007485;-0.046717;-0.0309865;0.575739
0.007984;-0.0471976;-0.0312307;0.572938
0.008483;-0.0477412;-0.0311272;0.572142
0.008982;-0.0481606;-0.0312845;0.572937
0.009481;-0.0486307;-0.0321372;0.572938
0.00998;-0.0488736;-0.0319468;0.571951
0.010479;-0.0483876;-0.0316074;0.572874
0.010978;-0.0478438;-0.0316157;0.572365
0.011477;-0.04732;-0.0311397;0.574528
0.011976;-0.046871;-0.0310403;0.573288
0.012475;-0.0463269;-0.0309865;0.572842
0.012974;-0.0459563;-0.0309285;0.572938
0.013473;-0.0455032;-0.0307753;0.572715
0.013972;-0.044974;-0.0299474;0.573129
0.014471;-0.0445061;-0.0290986;0.573415
0.01497;-0.0439823;-0.0296368;0.577488
0.015469;-0.043552;-0.0295208;0.574529
0.015968;-0.0429934;-0.0294505;0.576312
0.016467;-0.0425386;-0.0294173;0.576948
0.016966;-0.0420224;-0.0289703;0.574051
0.017465;-0.0414606;-0.0290779;0.575833
0.017964;-0.0408893;-0.0294256;0.582294
0.018463;-0.0404347;-0.029082;0.580257
0.018962;-0.04001;-0.0288668;0.578188
0.019461;-0.0394949;-0.0285273;0.581404
0.01996;-0.0390746;-0.027923;0.584267
0.020459;-0.0386275;-0.0275008;0.581753
0.020958;-0.0380483;-0.0273849;0.580957
0.021457;-0.0375439;-0.0270992;0.581436
0.021956;-0.0371008;-0.0269088;0.582166
0.022455;-0.0366052;-0.0268219;0.583408
0.022954;-0.0359945;-0.0263664;0.587323
0.023453;-0.0356322;-0.0263126;0.584331
0.023952;-0.0350924;-0.0256171;0.584141
0.024451;-0.0345794;-0.0252154;0.58293
0.02495;-0.0341213;-0.0248221;0.585891
0.025449;-0.0336862;-0.0248221;0.583631
0.025948;-0.0331936;-0.0246566;0.583822
0.026447;-0.0327042;-0.0241102;0.584267
0.026946;-0.0323086;-0.0241681;0.580321
0.027445;-0.0316708;-0.0240978;0.580544
0.027944;-0.0310928;-0.0230959;0.581149
0.028443;-0.0307145;-0.0237914;0.580513
0.028942;-0.0302588;-0.0231126;0.579175
0.029441;-0.0297714;-0.0227317;0.58185
0.02994;-0.0293597;-0.0227234;0.575993
0.030439;-0.0288367;-0.022711;0.58048
0.030938;-0.0282611;-0.0224791;0.583599
0.031437;-0.0277728;-0.0217836;0.584682
0.031936;-0.0273289;-0.0212909;0.585254
0.032435;-0.0268164;-0.0212826;0.583314
0.032934;-0.0262866;-0.0208355;0.586177
0.033433;-0.0259065;-0.0206699;0.58414
0.033932;-0.0254034;-0.0205913;0.585827
0.034431;-0.0248209;-0.0205623;0.583823
0.03493;-0.0243571;-0.0202725;0.582612
0.035429;-0.0239398;-0.0202312;0.580639
0.035928;-0.0234067;-0.0199911;0.579779
0.036427;-0.0230022;-0.0197882;0.582199
0.036926;-0.0224376;-0.0191796;0.582709
0.037425;-0.0218811;-0.0188568;0.581499
0.037924;-0.0214647;-0.0187202;0.581658
0.038423;-0.0210797;-0.0185877;0.584268
0.038922;-0.0205774;-0.0185463;0.583185
0.039421;-0.0200277;-0.0181406;0.584522
0.03992;-0.0196025;-0.0179378;0.585827
0.040419;-0.0190972;-0.0167703;0.584204
0.040918;-0.0186372;-0.0170684;0.579462
0.041417;-0.018124;-0.0168448;0.581403
0.041916;-0.0177421;-0.0167289;0.577521
0.042415;-0.0172428;-0.0165426;0.577074
0.042914;-0.0167977;-0.016526;0.576248
0.043413;-0.016397;-0.0163025;0.577902
0.043912;-0.0158966;-0.0161866;0.576503
0.044411;-0.0153449;-0.0153421;0.578252
0.04491;-0.0149049;-0.0154331;0.574369
0.045409;-0.0144164;-0.0144686;0.578602
0.045908;-0.0139594;-0.0150357;0.57803
0.046407;-0.0134867;-0.0146673;0.57803
0.046906;-0.0130031;-0.0145721;0.577552
0.047405;-0.0124642;-0.0144148;0.576088
0.047904;-0.0119067;-0.0139428;0.582326
0.048403;-0.01144;-0.0136116;0.576852
0.048902;-0.0109366;-0.0129741;0.582295
0.049401;-0.0103553;-0.0126263;0.581944
0.0499;-0.00996749;-0.0124276;0.582135
0.050399;-0.00947308;-0.0123862;0.578571
0.050898;-0.00894899;-0.012113;0.583153
0.051397;-0.00847634;-0.0119184;0.584045
0.051896;-0.00807858;-0.0118853;0.585859
0.052395;-0.0075546;-0.0119888;0.58293
0.052894;-0.00705226;-0.0113513;0.583185
0.053393;-0.00656669;-0.0110946;0.581944
0.053892;-0.00600715;-0.0104447;0.582548
0.054391;-0.00543277;-0.0103743;0.582007
0.05489;-0.00493835;-0.0102998;0.581403
0.055389;-0.00447153;-0.0100721;0.582294
0.055888;-0.00394849;-0.00998931;0.583885
0.056387;-0.0034679;-0.00987754;0.585381
0.056886;-0.00298335;-0.00944703;0.583122
0.057385;-0.00250865;-0.00857765;0.583408
0.057884;-0.00201915;-0.0089461;0.582995
0.058383;-0.00165895;-0.00832926;0.583313
0.058882;-0.00118524;-0.0081885;0.58309
0.059381;-0.000614824;-0.00800634;0.584745
0.05988;-9.77012e-05;-0.00750956;0.586495
0.060379;0.000336525;-0.00724461;0.586019
0.060878;0.000890162;-0.0072529;0.580481
0.061377;0.00138361;-0.00676855;0.581022
0.061876;0.00171223;-0.0067437;0.580098
0.062375;0.00218692;-0.00630489;0.580799
0.062874;0.00279189;-0.00605236;0.581499
0.063373;0.00317282;-0.00619726;0.584077
0.063872;0.00374224;-0.00545625;0.582867
0.064371;0.00424751;-0.00548111;0.583121
0.06487;0.00477847;-0.00526168;0.584649
0.065369;0.00521468;-0.00563426;0.58484
0.065868;0.00576833;-0.0044006;0.585159
0.066367;0.00626964;-0.00427227;0.585508
0.066866;0.00670192;-0.00419775;0.585159
0.067365;0.00720427;-0.00396592;0.584172
0.067864;0.00775388;-0.00389968;0.585031
0.068363;0.00824541;-0.00325803;0.585859
0.068862;0.00865097;-0.00303862;0.585733
0.069361;0.00918983;-0.00312554;0.5857
0.06986;0.00962799;-0.00346087;0.585063
0.070359;0.0101441;-0.00272813;0.583026
0.070858;0.0106247;-0.00227275;0.583249
0.071357;0.0111291;-0.00204092;0.584076
0.071856;0.0116097;-0.0019871;0.584777
0.072355;0.0121287;-0.00144893;0.584713
0.072854;0.0126113;-0.00146135;0.584108
0.073353;0.0131492;-0.000873497;0.582391
0.073852;0.0136841;-0.000976991;0.58519
0.074351;0.01414;-0.00041398;0.586877
0.07485;0.0145388;-7.86562e-05;0.585159
0.075349;0.0149709;4.96776e-05;0.583727
0.075848;0.0155581;0.000972851;0.583313
0.076347;0.0159835;0.00149032;0.586145
0.076846;0.0164079;0.00183807;0.585382
0.077345;0.016932;0.00118812;0.584109
0.077844;0.0173868;0.00161038;0.585
0.078343;0.0178585;0.00199124;0.58675
0.078842;0.0182721;0.00205334;0.586368
0.079341;0.0188997;0.00278195;0.587641
0.07984;0.0192994;0.00303447;0.5871
0.080339;0.0197041;0.00242178;0.586495
0.080838;0.0202153;0.00307172;0.584682
0.081337;0.0207807;0.00371339;0.584236
0.081836;0.0212741;0.0039535;0.584109
0.082335;0.0217044;0.00378791;0.58188
0.082834;0.0221821;0.00413151;0.584809
0.083333;0.0226559;0.00418533;0.583058
0.083832;0.0230632;0.00413151;0.578633
0.084331;0.0236013;0.00454963;0.579971
0.08483;0.0240088;0.00428054;0.580321
0.085329;0.0245179;0.00490983;0.582613
0.085828;0.0250392;0.00505883;0.580004
0.086327;0.0255444;0.00511265;0.579462
0.086826;0.0260024;0.00504227;0.577616
0.087325;0.0266063;0.00598613;0.582708
0.087824;0.0270357;0.00606064;0.581849
0.088323;0.0274995;0.00619726;0.582803
0.088822;0.027899;0.00621796;0.580257
0.089321;0.0283995;0.00630903;0.580003
0.08982;0.0289165;0.00657397;0.577616
0.090319;0.0293865;0.00673543;0.574624
0.090818;0.0299262;0.00760891;0.578157
0.091317;0.0303898;0.00783661;0.58239
0.091816;0.0309654;0.00813882;0.582167
0.092315;0.03151;0.00824232;0.581784
0.092814;0.0320796;0.0084783;0.584235
0.093313;0.0324259;0.0087184;0.583058
0.093812;0.0329182;0.00886328;0.582835
0.094311;0.0334257;0.00925657;0.580926
0.09481;0.0338371;0.00946357;0.58153
0.095309;0.034306;0.00978231;0.581849
0.095808;0.0349533;0.0102046;0.583123
0.096307;0.0354318;0.0103536;0.58239
0.096806;0.0358148;0.0103784;0.584108
0.097305;0.0363132;0.0105026;0.583694
0.097804;0.036943;0.0112188;0.583727
0.098303;0.0373455;0.0109166;0.581848
0.098802;0.0378628;0.0118108;0.581403
0.099301;0.0383956;0.0121627;0.583917
0.0998;0.0388791;0.0120757;0.578729
0.100299;0.0392956;0.0123904;0.582327
0.100798;0.0398728;0.0123076;0.579144
0.101297;0.0403192;0.0124483;0.580099
0.101796;0.040754;0.0124318;0.575801
0.102295;0.0412149;0.012527;0.578635
0.102794;0.0417777;0.0128996;0.578858
0.103293;0.0421902;0.0138228;0.581945
0.103792;0.0425976;0.014274;0.575674
0.104291;0.04325;0.0144437;0.581468
0.10479;0.0437504;0.0147087;0.580226
0.105289;0.0441222;0.0151723;0.58118
0.105788;0.0446523;0.0153089;0.581466
0.106287;0.0451826;0.0157643;0.584076
0.106786;0.0456602;0.0165219;0.586622
0.107285;0.0460486;0.0165012;0.586241
0.107784;0.0465185;0.0165757;0.585572
0.108283;0.0469293;0.0173499;0.584555
0.108782;0.0474717;0.0176107;0.585349
0.109281;0.0479811;0.0179874;0.58675
0.10978;0.0482643;0.0182441;0.587164
0.110279;0.0479059;0.0172298;0.586622
0.110778;0.0475964;0.017354;0.582644
0.111277;0.047087;0.0165923;0.585413
0.111776;0.0465223;0.0164433;0.587132
0.112275;0.0461662;0.0164681;0.58605
0.112774;0.0457411;0.0163977;0.585382
0.113273;0.0452081;0.0159341;0.585413
0.113772;0.0446778;0.0149736;0.586304
0.114271;0.0442103;0.0150316;0.585445
0.11477;0.0437671;0.0146052;0.583122
0.115269;0.0432174;0.0142988;0.576407
0.115768;0.0427213;0.0144148;0.57978
0.116267;0.0422109;0.0142533;0.583154
0.116766;0.0417342;0.0143237;0.581817
0.117265;0.0413194;0.0140339;0.583186
0.117764;0.0408371;0.0130817;0.585222
0.118263;0.0403102;0.0126512;0.584999
0.118762;0.0398235;0.0124028;0.587418
0.119261;0.039414;0.0123366;0.58605
0.11976;0.0389294;0.0121089;0.582835
0.120259;0.0383778;0.0117114;0.583281
0.120758;0.0379042;0.011492;0.582677
0.121257;0.0373633;0.0111029;0.5829
0.121756;0.0369094;0.0113347;0.584394
0.122255;0.0364039;0.0111691;0.58204
0.122754;0.0359047;0.0112436;0.57978
0.123253;0.035415;0.0104902;0.580671
0.123752;0.0349632;0.0102046;0.578602
0.124251;0.0344649;0.0102336;0.57873
0.12475;0.033918;0.00959193;0.576439
0.125249;0.0334296;0.00943872;0.577361
0.125748;0.0330287;0.00938488;0.576342
0.126247;0.0325819;0.0086439;0.575293
0.126746;0.0320323;0.00838722;0.578603
0.127245;0.0315593;0.00836238;0.580193
0.127744;0.0310177;0.00822576;0.576407
0.128243;0.030457;0.00807672;0.578253
0.128742;0.03002;0.00758408;0.583313
0.129241;0.0294841;0.00667333;0.581881
0.12974;0.0289393;0.00625521;0.581372
0.130239;0.0284882;0.00649533;0.583726
0.130738;0.0280806;0.00645807;0.582358
0.131237;0.0276337;0.00685547;0.587164
0.131736;0.0270238;0.00623037;0.585413
0.132235;0.0265618;0.00620967;0.582517
0.132734;0.0261484;0.00618484;0.583791
0.133233;0.0256036;0.00619726;0.585922
0.133732;0.0250964;0.00577916;0.584777
0.134231;0.024588;0.00465314;0.57908
0.13473;0.0241065;0.00443786;0.583089
0.135229;0.0236358;0.00448339;0.580703
0.135728;0.0231985;0.00435921;0.583121
0.136227;0.0227072;0.00410253;0.58344
0.136726;0.0222107;0.00413151;0.584299
0.137225;0.021739;0.00416463;0.586145
0.137724;0.0213324;0.00398662;0.585032
0.138223;0.0207964;0.00357264;0.585317
0.138722;0.0201976;0.00252943;0.584204
0.139221;0.0198353;0.00327872;0.586114
0.13972;0.0193794;0.0033284;0.587641
0.140219;0.0188218;0.00323732;0.587259
0.140718;0.018345;0.00213199;0.584205
0.141217;0.0178812;0.00214027;0.586559
0.141716;0.0173336;0.00209887;0.584617
0.142215;0.0169379;0.0019457;0.583027
0.142714;0.0165293;0.00160624;0.577744
0.143213;0.0160239;0.00118812;0.577584
0.143712;0.0155077;0.000389141;0.580003
0.144211;0.0151033;2.48388e-05;0.581945
0.14471;0.0145585;0;0.579621
0.145209;0.0140729;-0.000186291;0.581117
0.145708;0.0136249;-0.000405701;0.58083
0.146207;0.0131481;-0.00062511;0.582199
0.146706;0.01256;-0.00124608;0.579398
0.147205;0.0120952;-0.00158968;0.580767
0.147704;0.0116955;-0.00183807;0.578571
0.148203;0.0111429;-0.00197468;0.580607
0.148702;0.0106681;-0.00210302;0.58099
0.149201;0.0102457;-0.00219409;0.578539
0.1497;0.00972376;-0.00287302;0.580957
0.150199;0.00919277;-0.00351469;0.575739
0.150698;0.008725;-0.00366371;0.575674
0.151197;0.00824045;-0.00387484;0.579431
0.151696;0.0077559;-0.00403629;0.576661
0.152195;0.0072605;-0.00412737;0.579493
0.152694;0.0067542;-0.00417291;0.57628
0.153193;0.00624699;-0.00424329;0.579526
0.153692;0.00570811;-0.00425157;0.580226
0.154191;0.00522255;-0.00437577;0.57682
0.15469;0.00479822;-0.00463244;0.579844
0.155189;0.00424751;-0.00553078;0.577934
0.155688;0.0038281;-0.00565083;0.575675
0.156187;0.00333172;-0.00580812;0.582104
0.156686;0.0027968;-0.00596544;0.579016
0.157185;0.00230832;-0.00619725;0.579208
0.157684;0.00181783;-0.00620554;0.581786
0.158183;0.00135597;-0.00634629;0.5822
0.158682;0.00089707;-0.00624279;0.584299
0.159181;0.000450015;-0.00649946;0.582421
0.15968;-6.80948e-05;-0.0068058;0.580002
0.160179;-0.000643443;-0.00725705;0.583377
0.160678;-0.00110432;-0.0082092;0.578539
0.161177;-0.00151782;-0.0081264;0.579461
0.161676;-0.00203001;-0.0083127;0.578697
0.162175;-0.002482;-0.00826302;0.577107
0.162674;-0.00293006;-0.00838308;0.575547
0.163173;-0.00349652;-0.00934764;0.575197
0.163672;-0.00395145;-0.00911997;0.578634
0.164171;-0.00447646;-0.0101673;0.575166
0.16467;-0.00495612;-0.0102501;0.580703
0.165169;-0.00544067;-0.0102501;0.580226
0.165668;-0.00596766;-0.010453;0.577617
0.166167;-0.00643249;-0.0107096;0.577011
0.166666;-0.00708091;-0.010602;0.582962
0.167165;-0.00752102;-0.0106103;0.580481
0.167664;-0.00795325;-0.0108048;0.581625
0.168163;-0.00840922;-0.0119888;0.579875
0.168662;-0.00897468;-0.0123283;0.581148
0.169161;-0.00936647;-0.0123531;0.581944
0.16966;-0.00989249;-0.0122496;0.582581
0.170159;-0.010378;-0.0121751;0.582263
0.170658;-0.0108152;-0.0120964;0.58414
0.171157;-0.0113413;-0.0123862;0.586145
0.171656;-0.0118998;-0.0126719;0.586272
0.172155;-0.0124346;-0.0135247;0.582836
0.172654;-0.0129311;-0.0135909;0.585158
0.173153;-0.0135163;-0.0130486;0.586368
0.173652;-0.0139861;-0.013918;0.584331
0.174151;-0.0143582;-0.0139056;0.584077
0.17465;-0.0148516;-0.014452;0.579811
0.175149;-0.0153173;-0.0145017;0.585158
0.175648;-0.0157446;-0.0148039;0.584299
0.176147;-0.0162628;-0.0155615;0.581722
0.176646;-0.0168313;-0.0158016;0.579398
0.177145;-0.01723;-0.0162818;0.581722
0.177644;-0.0176256;-0.0164888;0.582644
0.178143;-0.0181062;-0.0167206;0.584585
0.178642;-0.0186254;-0.0167289;0.584904
0.179141;-0.0190784;-0.0168365;0.579494
0.17964;-0.0195106;-0.0172836;0.579239
0.180139;-0.0200565;-0.0166709;0.583885
0.180638;-0.0205655;-0.0171719;0.582422
0.181137;-0.0210038;-0.0179047;0.585063
0.181636;-0.0215011;-0.0178674;0.584681
0.182135;-0.0219511;-0.0177142;0.586495
0.182634;-0.0223608;-0.0183931;0.585413
0.183133;-0.0229843;-0.0185918;0.583982
0.183632;-0.0234602;-0.0185877;0.586464
0.184131;-0.023844;-0.0188278;0.586782
0.18463;-0.0243097;-0.0191134;0.586623
0.185129;-0.0248319;-0.0200407;0.582294
0.185628;-0.0254329;-0.0202104;0.582199
0.186127;-0.0258949;-0.0204919;0.580418
0.186626;-0.0263348;-0.0206948;0.582485
0.187125;-0.0268907;-0.0210053;0.58064
0.187624;-0.0272735;-0.021055;0.584649
0.188123;-0.0277717;-0.021084;0.581626
0.188622;-0.0282673;-0.0209018;0.585827
0.189121;-0.0287852;-0.0219244;0.5829
0.18962;-0.0292354;-0.0220279;0.584013
0.190119;-0.0297614;-0.0226448;0.579685
0.190618;-0.0301965;-0.0226944;0.578921
0.191117;-0.0306337;-0.0227234;0.583472
0.191616;-0.0312633;-0.0230214;0.577584
0.192115;-0.0316977;-0.0232284;0.578985
0.192614;-0.0321891;-0.0230918;0.581371
0.193113;-0.0327563;-0.0238038;0.583759
0.193612;-0.0332135;-0.0243834;0.580767
0.194111;-0.0336576;-0.0246193;0.581149
0.19461;-0.0340926;-0.0247559;0.583822
0.195109;-0.0345922;-0.0247559;0.585699
0.195608;-0.0351003;-0.0251451;0.586686
0.196107;-0.0355463;-0.0256336;0.587355
0.196606;-0.0360991;-0.0257413;0.584586
0.197105;-0.0366123;-0.0263913;0.580225
0.197604;-0.0370969;-0.0259276;0.586655
0.198103;-0.0375705;-0.026234;0.586241
0.198602;-0.0380325;-0.0266314;0.584299
0.199101;-0.0385822;-0.0267929;0.584967
0.1996;-0.0389797;-0.026855;0.584237
0.200099;-0.0394328;-0.0268302;0.585795
0.200598;-0.0399064;-0.0270909;0.58293
0.201097;-0.0404148;-0.0278071;0.579111
0.201596;-0.0408399;-0.0276332;0.582868
0.202095;-0.0413798;-0.0279229;0.582104
0.202594;-0.0418942;-0.0287633;0.582103
0.203093;-0.0424466;-0.0286267;0.583313
0.203592;-0.0429619;-0.0288502;0.586018
0.204091;-0.0434079;-0.0289496;0.583791
0.20459;-0.0439199;-0.0290241;0.585158
0.205089;-0.0444727;-0.0292311;0.586305
0.205588;-0.0449851;-0.0300468;0.585731
0.206087;-0.0453839;-0.0304732;0.585381
0.206586;-0.0458663;-0.0306056;0.58414
0.207085;-0.0463061;-0.0303986;0.585031
0.207584;-0.0467437;-0.0306925;0.580831
0.208083;-0.0472361;-0.0309202;0.580862
0.208582;-0.0478528;-0.0310693;0.581403
0.209081;-0.0482752;-0.0312431;0.582612
0.20958;-0.0487392;-0.0314666;0.583727
0.210079;-0.0487758;-0.0325885;0.57577
0.210578;-0.048203;-0.0315991;0.579017
0.211077;-0.0477235;-0.031359;0.579557
0.211576;-0.0472529;-0.0311686;0.580513
0.212075;-0.0467752;-0.0310527;0.581181
0.212574;-0.0462549;-0.0309948;0.582867
0.213073;-0.0457559;-0.0309782;0.580703
0.213572;-0.0453345;-0.0306967;0.578794
0.214071;-0.0448091;-0.0301377;0.582517
0.21457;-0.0443059;-0.0294836;0.586432
0.215069;-0.0439339;-0.0296575;0.586018
0.215568;-0.0434108;-0.0289454;0.584649
0.216067;-0.0429283;-0.0290489;0.585317
0.216566;-0.042426;-0.028904;0.580225
0.217065;-0.0418892;-0.0286308;0.580384
0.217564;-0.0412868;-0.0288337;0.585286
0.218063;-0.0408814;-0.0284859;0.584841
0.218562;-0.0403991;-0.0278443;0.5857
0.219061;-0.0399231;-0.0274552;0.585731
0.21956;-0.0394013;-0.0272359;0.583599
0.220059;-0.0389107;-0.0267515;0.584617
0.220558;-0.0384163;-0.0268012;0.582072
0.221057;-0.0378717;-0.0265776;0.581371
0.221556;-0.0374245;-0.0264078;0.581594
0.222055;-0.0369943;-0.0258738;0.584363
0.222554;-0.0364138;-0.0253811;0.582104
0.223053;-0.0359422;-0.0254183;0.581625
0.223552;-0.0355058;-0.0248304;0.581307
0.224051;-0.0349938;-0.0248139;0.58414
0.22455;-0.0345152;-0.0247021;0.584236
0.225049;-0.0340522;-0.0247849;0.580703
0.225548;-0.0335688;-0.0247849;0.58032
0.226047;-0.0330544;-0.0244537;0.583409
0.226546;-0.0325572;-0.0242592;0.583249
0.227045;-0.0321053;-0.0239198;0.581085
0.227544;-0.0315396;-0.0234354;0.585477
0.228043;-0.0310701;-0.0234023;0.584777
0.228542;-0.0305724;-0.0229594;0.586018
0.229041;-0.0301482;-0.0230008;0.58344
0.22954;-0.0296964;-0.0227276;0.5864
0.230039;-0.0291751;-0.0227027;0.587068
0.230538;-0.0287074;-0.0227234;0.586145
0.231037;-0.0281674;-0.0224502;0.586114
0.231536;-0.027685;-0.0221479;0.584967
0.232035;-0.027248;-0.0212785;0.585986
0.232534;-0.026697;-0.0214648;0.586654
0.233033;-0.0262017;-0.020968;0.586591
0.233532;-0.0256885;-0.0206244;0.58535
0.234031;-0.0251823;-0.0205706;0.587386
0.23453;-0.0246758;-0.0206741;0.58605
0.235029;-0.0242219;-0.0204091;0.585349
0.235528;-0.0237691;-0.0203346;0.586941
0.236027;-0.0232567;-0.0199663;0.585222
0.236526;-0.0228217;-0.0196971;0.584586
0.237025;-0.0224683;-0.0191051;0.583377
0.237524;-0.0218742;-0.0187616;0.58344
0.238023;-0.0214163;-0.0188195;0.582771
0.238522;-0.0209524;-0.0185918;0.581913
0.239021;-0.0204384;-0.01848;0.581658
0.23952;-0.0199281;-0.0182068;0.584427
0.240019;-0.0194475;-0.0182772;0.583217
0.240518;-0.0190182;-0.0176687;0.579176
0.241017;-0.0185809;-0.0170891;0.580925
0.241516;-0.0180707;-0.0165716;0.585795
0.242015;-0.0176552;-0.016526;0.586463
0.242514;-0.0171718;-0.0163273;0.585159
0.243013;-0.0167148;-0.0160458;0.58411
0.243512;-0.0162875;-0.0159258;0.58519
0.244011;-0.0157564;-0.0152924;0.586336
0.24451;-0.0152364;-0.0145597;0.586304
0.245009;-0.0147786;-0.014808;0.585
0.245508;-0.0143236;-0.0143982;0.585699
0.246007;-0.0138055;-0.014216;0.586973
0.246506;-0.0133692;-0.0141788;0.585286
0.247005;-0.0128639;-0.0142906;0.586782
0.247504;-0.0123665;-0.0137193;0.585636
0.248003;-0.0118021;-0.013119;0.586877
0.248502;-0.011364;-0.0130817;0.585763
0.249001;-0.010831;-0.0127423;0.5857
0.2495;-0.0103622;-0.0129079;0.587227
0.249999;-0.00992111;-0.0124566;0.586463
0.250498;-0.00942669;-0.0122827;0.587068
0.250997;-0.0088661;-0.0120219;0.586973
0.251496;-0.00835495;-0.012113;0.583218
0.251995;-0.00789699;-0.011786;0.581435
0.252494;-0.00734538;-0.0112023;0.58535
0.252993;-0.00691409;-0.0109704;0.580543
