t;vds;corrente;vg
0;-0.00221816;0.0188148;0
2e-05;-0.00237236;0.0205708;0
4e-05;-0.00218949;0.0153108;0
6e-05;-0.00180398;0.0189686;0
8e-05;-0.0021885;0.0167148;0
0.0001;-0.00226956;0.0199801;0
0.00012;-0.0020254;0.0189928;0
0.00014;-0.00188998;0.0189645;0
0.00016;-0.00203232;0.0170466;0
0.00018;-0.0021885;0.0174634;0
0.0002;-0.00205308;0.0207529;0
0.00022;-0.00224781;0.0196402;0
0.00024;-0.00174072;0.0172408;0
0.00026;-0.000536746;0.0254991;0
0.00028;-0.000419116;0.0267373;0
0.0003;-0.000389462;0.0221812;0
0.00032;0.00130282;0.028028;0
0.00034;0.00308604;0.0344736;0
0.00036;0.0052093;0.0432457;0
0.00038;0.00673157;0.0498977;0
0.0004;0.00874707;0.0583542;0
0.00042;0.0108031;0.0659652;0
0.00044;0.0126011;0.073398;0
0.00046;0.0144219;0.0781199;0
0.00048;0.0164592;0.0843713;0
0.0005;0.0183541;0.0926054;0
0.00052;0.0205505;0.100127;0
0.00054;0.0220382;0.105464;0
0.00056;0.0244777;0.10826;0
0.00058;0.0261176;0.118351;0
0.0006;0.0278603;0.129058;0
0.00062;0.0294823;0.137073;0
0.00064;0.0317361;0.142216;0
0.00066;0.0334798;0.147176;0
0.00068;0.0356317;0.153464;0
0.0007;0.0374298;0.163232;0
0.00072;0.0393692;0.169038;0
0.00074;0.0412978;0.178045;0
0.00076;0.0432539;0.184434;0
0.00078;0.0449156;0.193032;0
0.0008;0.0465398;0.195043;0
0.00082;0.0453425;0.190321;0
0.00084;0.0434625;0.182423;0
0.00086;0.0414776;0.176706;0
0.00088;0.0395452;0.167517;0
0.0009;0.0378389;0.163151;0
0.00092;0.0359589;0.153497;0
0.00094;0.0336874;0.148305;0
0.00096;0.031918;0.142224;0
0.00098;0.0301397;0.13488;0
0.001;0.0282765;0.125311;0
0.00102;0.026265;0.122555;0
0.00104;0.0242781;0.114439;0
0.00106;0.0224662;0.105549;0
0.00108;0.0206553;0.0989781;0
0.0011;0.0185844;0.0935359;0
0.00112;0.0167389;0.0883042;0
0.00114;0.0146601;0.0806447;0
0.00116;0.0129135;0.0737258;0
0.00118;0.0109267;0.0669889;0
0.0012;0.00889139;0.0594994;0
0.00122;0.00718429;0.0521595;0
0.00124;0.0051322;0.0471463;0
0.00126;0.00321356;0.0363834;0
0.00128;0.0014847;0.0326649;0
0.0013;-0.000258982;0.024698;0
0.00132;-0.00233875;0.0170992;0
0.00134;-0.00439479;0.0145865;0
0.00136;-0.00623831;0.00414331;0
0.00138;-0.00818464;-0.00241963;0
0.0014;-0.00984724;-0.00996577;0
0.00142;-0.0120338;-0.0142304;0
0.00144;-0.0141076;-0.0214651;0
0.00146;-0.0156358;-0.0291124;0
0.00148;-0.0178252;-0.0366707;0
0.0015;-0.0195788;-0.0425457;0
0.00152;-0.0214233;-0.050707;0
0.00154;-0.0235782;-0.0547208;0
0.00156;-0.0252902;-0.0636953;0
0.00158;-0.0272949;-0.0698698;0
0.0016;-0.0292452;-0.0773552;0
0.00162;-0.031237;-0.0822389;0
0.00164;-0.03321;-0.0871673;0
0.00166;-0.0351286;-0.0940295;0
0.00168;-0.0369425;-0.100548;0
0.0017;-0.0388799;-0.106456;0
0.00172;-0.040835;-0.115098;0
0.00174;-0.0426777;-0.118922;0
0.00176;-0.0447396;-0.122689;0
0.00178;-0.0464823;-0.129462;0
0.0018;-0.0478681;-0.137712;0
0.00182;-0.0469075;-0.135163;0
0.00184;-0.045213;-0.129049;0
0.00186;-0.0433836;-0.118598;0
0.00188;-0.0411563;-0.11666;0
0.0019;-0.0395858;-0.108208;0
0.00192;-0.037412;-0.10385;0
0.00194;-0.0356308;-0.0930544;0
0.00196;-0.0335193;-0.0900279;0
0.00198;-0.0318142;-0.0832101;0
0.002;-0.0300696;-0.0731391;0
0.00202;-0.0279434;-0.0693033;0
0.00204;-0.0258033;-0.0625421;0
0.00206;-0.0239657;-0.0587144;0
0.00208;-0.0220135;-0.0529121;0
0.0021;-0.0203202;-0.0456573;0
0.00212;-0.0181821;-0.0373747;0
0.00214;-0.016304;-0.0308765;0
0.00216;-0.0145445;-0.0242205;0
0.00218;-0.0126298;-0.0191951;0
0.0022;-0.0106825;-0.00888544;0
0.00222;-0.00877277;-0.00417568;0
0.00224;-0.00679879;0.0010075;0
0.00226;-0.00501358;0.0101883;0
0.00228;-0.00312163;0.0129842;0
0.0023;-0.00107843;0.0212385;0
0.00232;0.000726535;0.0274211;0
0.00234;0.00281421;0.0352869;0
0.00236;0.00481391;0.0400695;0
0.00238;0.00659713;0.0502416;0
0.0024;0.0085731;0.056493;0
0.00242;0.0105313;0.0622225;0
0.00244;0.0122384;0.0714194;0
0.00246;0.0141105;0.0803089;0
0.00248;0.0162358;0.085836;0
0.0025;0.0179449;0.0870337;0
0.00252;0.0200137;0.096162;0
0.00254;0.0218661;0.104109;0
0.00256;0.0237492;0.108657;0
0.00258;0.025657;0.119262;0
0.0026;0.0274965;0.124364;0
0.00262;0.0294389;0.133294;0
0.00264;0.0312834;0.139468;0
0.00266;0.0332159;0.14536;0
0.00268;0.0352087;0.155062;0
0.0027;0.0372569;0.159663;0
0.00272;0.039214;0.165927;0
0.00274;0.0410824;0.174452;0
0.00276;0.0430296;0.17953;0
0.00278;0.0447712;0.1881;0
0.0028;0.0465625;0.196726;0
0.00282;0.0458298;0.18886;0
0.00284;0.0438936;0.185235;0
0.00286;0.0420636;0.177216;0
0.00288;0.0400908;0.171134;0
0.0029;0.0380811;0.164931;0
0.00292;0.0363879;0.155835;0
0.00294;0.0341915;0.150106;0
0.00296;0.0322403;0.14156;0
0.00298;0.0303681;0.134637;0
0.003;0.0283111;0.130065;0
0.00302;0.0269005;0.12082;0
0.00304;0.0245548;0.114091;0
0.00306;0.0226451;0.108034;0
0.00308;0.0211248;0.0972868;0
0.0031;0.0191488;0.092318;0
0.00312;0.0172114;0.0860019;0
0.00314;0.0152671;0.0789495;0
0.00316;0.0132516;0.0713952;0
0.00318;0.0113132;0.0651115;0
0.0032;0.00918497;0.0599687;0
0.00322;0.00759254;0.0512937;0
0.00324;0.00566697;0.0455075;0
0.00326;0.00401126;0.0395637;0
0.00328;0.00198191;0.0321632;0
0.0033;1.28503e-05;0.0249772;0
0.00332;-0.00176148;0.0179327;0
0.00334;-0.00377996;0.0115802;0
0.00336;-0.00570256;0.00723055;0
0.00338;-0.00773686;-0.00195027;0
0.0034;-0.00971677;-0.00890972;0
0.00342;-0.0111303;-0.0148253;0
0.00344;-0.013471;-0.0170911;0
0.00346;-0.0154124;-0.0256326;0
0.00348;-0.0172302;-0.033814;0
0.0035;-0.0193504;-0.0418538;0
0.00352;-0.0213136;-0.0460255;0
0.00354;-0.0231512;-0.0523538;0
0.00356;-0.0252478;-0.0567884;0
0.00358;-0.026774;-0.0679276;0
0.0036;-0.0290139;-0.0710714;0
0.00362;-0.0309355;-0.0771083;0
0.00364;-0.0327583;-0.0857308;0
0.00366;-0.03475;-0.0931233;0
0.00368;-0.036205;-0.0982822;0
0.0037;-0.0386753;-0.102806;0
0.00372;-0.0404119;-0.110753;0
0.00374;-0.0422042;-0.112379;0
0.00376;-0.0443471;-0.126286;0
0.00378;-0.0461384;-0.128738;0
0.0038;-0.048038;-0.136592;0
0.00382;-0.0475144;-0.135875;0
0.00384;-0.0456005;-0.126966;0
0.00386;-0.0437492;-0.122365;0
0.00388;-0.0417009;-0.116571;0
0.0039;-0.0397271;-0.110906;0
0.00392;-0.0379466;-0.100572;0
0.00394;-0.0360173;-0.0984076;0
0.00396;-0.0341846;-0.0888464;0
0.00398;-0.0320159;-0.0837198;0
0.004;-0.0302248;-0.0808673;0
0.00402;-0.0285009;-0.0716379;-0.000112048
0.00404;-0.0262945;-0.0637924;0
0.00406;-0.0246981;-0.0566144;0
0.00408;-0.0225324;-0.0509983;0
0.0041;-0.0206474;-0.0459001;0
0.00412;-0.0188789;-0.0386128;0
0.00414;-0.0169672;-0.0309251;0
0.00416;-0.014927;-0.0243905;0
0.00418;-0.0128018;-0.0175726;0
0.0042;-0.0109771;-0.0128183;0
0.00422;-0.00918002;-0.00502537;0
0.00424;-0.00732169;0.00161848;0
0.00426;-0.00522907;0.0066479;0
0.00428;-0.00329955;0.0128709;0
0.0043;-0.00145603;0.0205223;0
0.00432;0.000339049;0.0268182;0
0.00434;0.00216379;0.0311274;0
0.00436;0.00433054;0.0410568;0
0.00438;0.00613947;0.0467497;0
0.0044;0.00797211;0.0544659;0
0.00442;0.010212;0.0604744;0
0.00444;0.0118805;0.0692143;0
0.00446;0.0139899;0.072172;0
0.00448;0.0157099;0.0815025;0
0.0045;0.0177254;0.0851037;0
0.00452;0.0194394;0.0948267;0
0.00454;0.0215241;0.101467;0
0.00456;0.0234625;0.10928;0
0.00458;0.0254207;0.113002;0
0.0046;0.0272109;0.12311;0
0.00462;0.0290416;0.131279;0
0.00464;0.0310008;0.137344;0
0.00466;0.03313;0.142851;0
0.00468;0.0348281;0.150154;0
0.0047;0.0365144;0.158623;0
0.00472;0.0386022;0.166117;0
0.00474;0.0405286;0.17062;0
0.00476;0.0424879;0.17864;0
0.00478;0.0444222;0.186056;0
0.0048;0.0462135;0.194675;0
0.00482;0.0460028;0.193574;0
0.00484;0.0443146;0.185243;0
0.00486;0.0425156;0.176394;0
0.00488;0.0403646;0.171377;0
0.0049;0.0383599;0.162649;0
0.00492;0.0364531;0.155269;0
0.00494;0.0345315;0.151777;0
0.00496;0.0324913;0.141807;0
0.00498;0.0308702;0.138902;0
0.005;0.0287697;0.127779;0
0.00502;0.0270082;0.125436;0
0.00504;0.0251034;0.112472;-6.40272e-05
0.00506;0.0231828;0.110182;0
0.00508;0.0213906;0.101078;0
0.0051;0.0194414;0.095381;0
0.00512;0.0174565;0.0871267;0
0.00514;0.0154687;0.0792084;0
0.00516;0.0136143;0.0715489;0
0.00518;0.0119171;0.0649657;0
0.0052;0.00987394;0.0607092;0
0.00522;0.00800473;0.0545266;0
0.00524;0.00579251;0.0482145;0
0.00526;0.00411604;0.0415463;0
0.00528;0.00232985;0.0345909;0
0.0053;0.000444817;0.0277043;0
0.00532;-0.00154203;0.0202188;0
0.00534;-0.00361884;0.0114103;0
0.00536;-0.00523995;0.00918081;0
0.00538;-0.007467;-0.000481498;0
0.0054;-0.00926899;-0.00596004;0
0.00542;-0.0112855;-0.00920509;0
0.00544;-0.0131666;-0.0215662;0
0.00546;-0.0150397;-0.0259442;0
0.00548;-0.0169089;-0.0316696;0
0.0055;-0.0188918;-0.0416515;0
0.00552;-0.0208886;-0.0499624;0
0.00554;-0.0227746;-0.0562786;0
0.00556;-0.0246636;-0.0559994;0
0.00558;-0.0264626;-0.068223;0
0.0056;-0.0286669;-0.0749194;0
0.00562;-0.0302643;-0.0798153;0
0.00564;-0.0321453;-0.0839423;0
0.00566;-0.0344268;-0.0950534;0
0.00568;-0.035862;-0.0942764;0
0.0057;-0.0379804;-0.103275;0
0.00572;-0.0398119;-0.111792;0
0.00574;-0.0419364;-0.112942;0
0.00576;-0.0437234;-0.123284;0
0.00578;-0.0455818;-0.125659;0
0.0058;-0.0475814;-0.133359;0
0.00582;-0.0475677;-0.133905;0
0.00584;-0.0458683;-0.126585;0
0.00586;-0.0440605;-0.122956;0
0.00588;-0.0422002;-0.113067;0
0.0059;-0.0402459;-0.110805;0
0.00592;-0.0381879;-0.101539;0
0.00594;-0.0364344;-0.095899;0
0.00596;-0.0343131;-0.0933983;0
0.00598;-0.0324943;-0.0845372;0
0.006;-0.0306251;-0.0779783;0
0.00602;-0.0288616;-0.0707639;0
0.00604;-0.0268095;-0.0649819;0
0.00606;-0.0244569;-0.0584433;0
0.00608;-0.0228536;-0.0529445;0
0.0061;-0.021104;-0.0487283;0
0.00612;-0.0190559;-0.0389163;0
0.00614;-0.0171264;-0.032847;0
0.00616;-0.0154272;-0.0265066;0
0.00618;-0.0134117;-0.0192235;0
0.0062;-0.0113626;-0.014105;0
0.00622;-0.00942318;-0.00908775;0
0.00624;-0.00771313;0.00298205;0
0.00626;-0.00562941;0.00370632;0
0.00628;-0.00376513;0.0118311;0
0.0063;-0.00165769;0.0189807;0
0.00632;-8.10556e-05;0.0253413;0
0.00634;0.00181584;0.0323453;0
0.00636;0.00380961;0.0408504;0
0.00638;0.00590915;0.045544;0
0.0064;0.00758562;0.0525723;0
0.00642;0.0094726;0.0602681;0
0.00644;0.0113586;0.067701;0
0.00646;0.0133504;0.0688744;0
0.00648;0.0155122;0.0807217;0
0.0065;0.0170948;0.0868556;0
0.00652;0.0192753;0.0952192;0
0.00654;0.02128;0.100928;0
0.00656;0.0228942;0.108754;0
0.00658;0.0249571;0.110571;0
0.0066;0.0266711;0.120905;0
0.00662;0.0285987;0.12697;0
0.00664;0.030724;0.134018;0
0.00666;0.0323708;0.140605;0
0.00668;0.034319;0.148119;0
0.0067;0.0362543;0.153375;0
0.00672;0.0382967;0.16267;0
0.00674;0.0402924;0.169682;0
0.00676;0.0421044;0.176374;0
0.00678;0.0442196;0.183394;0
0.0068;0.0459783;0.190066;0
0.00682;0.0464803;0.192336;0
0.00684;0.0446773;0.184357;0
0.00686;0.0426461;0.179542;0
0.00688;0.0406799;0.172461;0
0.0069;0.0389392;0.165182;0
0.00692;0.0368495;0.160464;0
0.00694;0.0351958;0.150992;0
0.00696;0.0330468;0.144631;0
0.00698;0.0311727;0.136078;0
0.007;0.0292639;0.130449;0
0.00702;0.0272376;0.125404;0
0.00704;0.0256422;0.117409;0
0.00706;0.0234408;0.108746;0
0.00708;0.021791;0.100795;0
0.0071;0.019826;0.0947822;0
0.00712;0.0178164;0.0906065;0
0.00714;0.0160094;0.0819071;0
0.00716;0.0142025;0.0758176;0
0.00718;0.0121296;0.0674178;0
0.0072;0.0100637;0.0616358;0
0.00722;0.00837046;0.0589895;0
0.00724;0.00638856;0.043618;0
0.00726;0.0045658;0.0422585;0
0.00728;0.00245934;0.0400331;0
0.0073;0.000566399;0.0296101;0
0.00732;-0.00108832;0.0233142;0
0.00734;-0.00320466;0.0133969;0
0.00736;-0.00511045;0.00864267;0
0.00738;-0.00703997;0.00264217;0
0.0074;-0.00880737;-0.00531265;0
0.00742;-0.0109622;-0.0104756;0
0.00744;-0.012614;-0.0196807;0
0.00746;-0.0147639;-0.0251026;0
0.00748;-0.0165669;-0.03101;0
0.0075;-0.0186081;-0.0390256;0
0.00752;-0.0204457;-0.0499018;0
0.00754;-0.0226599;-0.0495619;0
0.00756;-0.0241159;-0.057889;0
0.00758;-0.026169;-0.0644195;0
0.0076;-0.027968;-0.0720263;0
0.00762;-0.0300903;-0.0749073;0
0.00764;-0.0319021;-0.0863256;0
0.00766;-0.0341501;-0.0913956;0
0.00768;-0.0356564;-0.0963967;0
0.0077;-0.0376512;-0.101758;0
0.00772;-0.0396063;-0.107224;0
0.00774;-0.0413709;-0.112497;0
0.00776;-0.0435198;-0.121232;0
0.00778;-0.0454851;-0.124388;0
0.0078;-0.0472582;-0.130539;0
0.00782;-0.0479986;-0.13344;0
0.00784;-0.0464705;-0.129515;0
0.00786;-0.0444292;-0.124761;0
0.00788;-0.042568;-0.114508;0
0.0079;-0.0405721;-0.111971;0
0.00792;-0.0387127;-0.103995;0
0.00794;-0.0367853;-0.0990914;0
0.00796;-0.0347381;-0.0909221;0
0.00798;-0.0327809;-0.0876366;0
0.008;-0.0309621;-0.0764246;0
0.00802;-0.0290771;-0.0711969;0
0.00804;-0.0269163;-0.0653502;0
0.00806;-0.0253683;-0.0618906;0
0.00808;-0.0234131;-0.0509497;0
0.0081;-0.0214836;-0.0466688;0
0.00812;-0.0195382;-0.0416839;0
0.00814;-0.0175069;-0.0355296;0
0.00816;-0.015703;-0.0282788;0
0.00818;-0.0139979;-0.0199801;0
0.0082;-0.0117639;-0.0169819;0
0.00822;-0.0101329;-0.00939526;0
0.00824;-0.00804822;-0.000436989;0
0.00826;-0.00607126;0.00330979;0
0.00828;-0.00412988;0.0101479;0
0.0083;-0.00229526;0.0182321;0
0.00832;-0.000416151;0.0254789;0
0.00834;0.00159343;0.028817;0
0.00836;0.00348638;0.0371481;0
0.00838;0.00505411;0.0472029;0
0.0084;0.00726139;0.0545144;0
0.00842;0.00921957;0.0566185;0
0.00844;0.0110651;0.0625785;0
0.00846;0.0130529;0.0714316;0
0.00848;0.0151247;0.079791;0
0.0085;0.0166885;0.0857835;0
0.00852;0.0185893;0.0929006;0
0.00854;0.0207947;0.0967851;-9.60408e-05
0.00856;0.0226906;0.104744;0
0.00858;0.0245301;0.111906;0
0.0086;0.0264972;0.118238;0
0.00862;0.0281816;0.125169;0
0.00864;0.0302;0.130555;0
0.00866;0.0320594;0.139978;0
0.00868;0.0338337;0.146743;0
0.0087;0.0360518;0.151186;0
0.00872;0.0377658;0.160978;0
0.00874;0.0399009;0.165797;0
0.00876;0.0416408;0.174205;0
0.00878;0.0436927;0.181112;0
0.0088;0.0455207;0.187485;0
0.00882;0.0463539;0.192433;0
0.00884;0.0450123;0.184244;0
0.00886;0.0428714;0.178304;0
0.00888;0.0414143;0.172502;0
0.0089;0.0391696;0.164964;0
0.00892;0.0375335;0.160347;0
0.00894;0.0353975;0.152355;0
0.00896;0.0334838;0.145481;0
0.00898;0.0316156;0.141241;0
0.009;0.0293598;0.131243;0
0.00902;0.0278613;0.125242;0
0.00904;0.0259289;0.117449;0
0.00906;0.0238559;0.111364;0
0.00908;0.0220243;0.101285;-0.000128054
0.0091;0.0200602;0.0984197;0
0.00912;0.0182542;0.0898174;0
0.00914;0.0164285;0.081895;0
0.00916;0.0145791;0.0773067;0
0.00918;0.0123639;0.071294;0
0.0092;0.0106331;0.0621335;0
0.00922;0.00852169;0.0574479;0
0.00924;0.00666633;0.0480607;0
0.00926;0.00478524;0.0427238;0
0.00928;0.00297039;0.0389406;0
0.0093;0.00120595;0.0283436;0
0.00932;-0.000821429;0.0237066;0
0.00934;-0.00272031;0.0174027;0
0.00936;-0.0044887;0.0071213;0
0.00938;-0.00646468;0.00244391;0
0.0094;-0.00865713;-0.00588317;0
0.00942;-0.0104018;-0.00924959;0
0.00944;-0.0121474;-0.0143073;0
0.00946;-0.0145939;-0.0238483;0
0.00948;-0.0159758;-0.0312326;0
0.0095;-0.018185;-0.0397903;0
0.00952;-0.0198427;-0.0449006;0
0.00954;-0.0219828;-0.0520826;0
0.00956;-0.0239113;-0.0574197;0
0.00958;-0.0258082;-0.0620161;0
0.0096;-0.0276892;-0.0681299;0
0.00962;-0.0297483;-0.078743;0
0.00964;-0.0317114;-0.0781361;0
0.00966;-0.0335619;-0.0863702;0
0.00968;-0.0355408;-0.0931516;0
0.0097;-0.0373784;-0.101297;0
0.00972;-0.0392802;-0.107394;0
0.00974;-0.0411534;-0.114079;0
0.00976;-0.0430187;-0.117898;0
0.00978;-0.0450204;-0.124;0
0.0098;-0.0466336;-0.13263;0
0.00982;-0.0482289;-0.134682;0
0.00984;-0.0465951;-0.129847;0
0.00986;-0.0450747;-0.124797;0
0.00988;-0.0430406;-0.11418;0
0.0099;-0.0409171;-0.113888;0
0.00992;-0.0391459;-0.107605;0
0.00994;-0.0371965;-0.0979989;0
0.00996;-0.0351682;-0.0925204;0
0.00998;-0.0334008;-0.0849701;0
0.01;-0.0313545;-0.0831008;0
0.01002;-0.0295477;-0.0737946;0
0.01004;-0.0277931;-0.0657224;0
0.01006;-0.0257331;-0.061482;0
0.01008;-0.0236978;-0.0559549;0
0.0101;-0.0218849;-0.0497237;0
0.01012;-0.0199969;-0.0387464;0
0.01014;-0.0178134;-0.0370227;0
0.01016;-0.0160084;-0.031184;0
0.01018;-0.0141333;-0.0227275;0
0.0102;-0.0121435;-0.0164801;0
0.01022;-0.0103632;-0.0123935;0
0.01024;-0.0083329;-0.00282425;0
0.01026;-0.00640735;0.00109652;0
0.01028;-0.00454702;0.0130287;0
0.0103;-0.00288439;0.0184344;0
0.01032;-0.000427024;0.0182645;0
0.01034;0.00126427;0.02768;0
0.01036;0.00308901;0.0378845;0
0.01038;0.0049602;0.0448035;0
0.0104;0.00687292;0.0501445;0
0.01042;0.00876685;0.0554006;0
0.01044;0.0109692;0.062708;0
0.01046;0.0126713;0.0701125;0
0.01048;0.0145672;0.0775777;0
0.0105;0.016641;0.0840597;0
0.01052;0.0184292;0.0896921;0
0.01054;0.020338;0.0968256;0
0.01056;0.0221874;0.103607;0
0.01058;0.0240882;0.108378;0
0.0106;0.0260346;0.115867;0
0.01062;0.0277574;0.122839;0
0.01064;0.0296939;0.130979;0
0.01066;0.0316057;0.137267;0
0.01068;0.0333809;0.146934;0
0.0107;0.0355526;0.150539;0
0.01072;0.037502;0.15639;0
0.01074;0.0394403;0.165429;0
0.01076;0.0413295;0.172299;0
0.01078;0.0430967;0.177143;0
0.0108;0.0449175;0.186291;0
0.01082;0.046349;0.193776;0
0.01084;0.0453455;0.187812;0
0.01086;0.0437236;0.179303;0
0.01088;0.0416861;0.177151;0
0.0109;0.0396964;0.169123;0
0.01092;0.0380327;0.160007;0
0.01094;0.0357722;0.152101;0
0.01096;0.0339613;0.146776;0
0.01098;0.0317035;0.139707;0
0.011;0.0298768;0.133897;0
0.01102;0.0281262;0.124769;0
0.01104;0.0262758;0.121544;0
0.01106;0.024458;0.110024;0
0.01108;0.0223624;0.106678;0
0.0111;0.0204339;0.101175;0
0.01112;0.0186803;0.0907926;0
0.01114;0.0166954;0.0831898;0
0.01116;0.0147521;0.0762466;0
0.01118;0.012865;0.0709905;0
0.0112;0.0108268;0.0634606;0
0.01122;0.00910786;0.0568127;0
0.01124;0.00690752;0.0520908;0
0.01126;0.00535263;0.0445729;0
0.01128;0.0033727;0.037747;0
0.0113;0.00148569;0.0311233;0
0.01132;-0.00033213;0.0230876;0
0.01134;-0.00243167;0.0162293;0
0.01136;-0.00419908;0.0103785;0
0.01138;-0.00606335;0.00512653;0
0.0114;-0.00824592;-0.00284448;0
0.01142;-0.0100855;-0.00933052;0
0.01144;-0.0121534;-0.0166622;0
0.01146;-0.0141352;-0.0236541;0
0.01148;-0.0160816;-0.0291812;0
0.0115;-0.0180595;-0.0351655;0
0.01152;-0.0196668;-0.042651;0
0.01154;-0.0214747;-0.0518965;-3.20136e-05
0.01156;-0.0236306;-0.0546035;0
0.01158;-0.0252625;-0.0611785;0
0.0116;-0.02728;-0.0660259;0
0.01162;-0.0293598;-0.078476;0
0.01164;-0.0311599;-0.0790667;0
0.01166;-0.0330854;-0.0886117;0
0.01168;-0.0350416;-0.0923544;0
0.0117;-0.0369544;-0.100499;0
0.01172;-0.0388443;-0.105456;0
0.01174;-0.0407797;-0.113662;0
0.01176;-0.0426659;-0.115442;0
0.01178;-0.0444825;-0.123102;0
0.0118;-0.0466089;-0.129074;0
0.01182;-0.0480312;-0.13295;0
0.01184;-0.0472594;-0.133448;0
0.01186;-0.0452694;-0.125416;0
0.01188;-0.0434517;-0.117566;0
0.0119;-0.0415734;-0.115086;0
0.01192;-0.0394968;-0.105921;0
0.01194;-0.0374623;-0.100791;0
0.01196;-0.0356604;-0.0958342;0
0.01198;-0.0337339;-0.0880655;0
0.012;-0.0316778;-0.0836916;0
0.01202;-0.0299203;-0.0739039;0
0.01204;-0.0282646;-0.0703269;-0.000192082
0.01206;-0.0260949;-0.0615144;0
0.01208;-0.0240695;-0.0564404;0
0.0121;-0.0221034;-0.051326;0
0.01212;-0.0204121;-0.0468226;0
0.01214;-0.0184302;-0.0389851;0
0.01216;-0.0164631;-0.033199;0
0.01218;-0.0145425;-0.0233182;0
0.0122;-0.0126693;-0.0194905;0
0.01222;-0.0108011;-0.0147686;0
0.01224;-0.00878365;-0.00345546;0
0.01226;-0.00685019;0.00172368;0
0.01228;-0.00493648;0.00822591;0
0.0123;-0.00308604;0.0165934;0
0.01232;-0.00122473;0.0195876;0
0.01234;0.000732465;0.0262315;0
0.01236;0.0026778;0.0295332;0
0.01238;0.00463697;0.0407533;0
0.0124;0.00649038;0.0472353;0
0.01242;0.00838233;0.0557606;0
0.01244;0.010294;0.0577474;0
0.01246;0.0124202;0.0683928;0
0.01248;0.0142183;0.077691;0
0.0125;0.0160747;0.0812436;0
0.01252;0.0180467;0.0888018;0
0.01254;0.0199495;0.0932285;0
0.01256;0.0218246;0.102976;0
0.01258;0.0237482;0.109219;0
0.0126;0.0256273;0.117146;0
0.01262;0.0274303;0.124643;0
0.01264;0.0292382;0.131963;0
0.01266;0.0312458;0.137065;-3.20136e-05
0.01268;0.0331438;0.142276;-3.20136e-05
0.0127;0.035268;0.149414;0
0.01272;0.0370008;0.159821;0
0.01274;0.0389263;0.163402;0
0.01276;0.0409586;0.172125;0
0.01278;0.0427706;0.178199;0
0.0128;0.0446288;0.184486;0
0.01282;0.0463509;0.191875;0
0.01284;0.0457004;0.188023;0
0.01286;0.0438214;0.183637;0
0.01288;0.0417908;0.176151;0
0.0129;0.0400295;0.169512;0
0.01292;0.0381651;0.164919;0
0.01294;0.0361082;0.153266;0
0.01296;0.0341915;0.147541;0
0.01298;0.0323777;0.141285;0
0.013;0.0304244;0.133347;0
0.01302;0.028657;0.130267;0
0.01304;0.0263242;0.12048;0
0.01306;0.0245894;0.10932;0
0.01308;0.0226945;0.104784;0
