t;vds;corrente;vg
0.000499;-0.0365737;-0.0266632;-0.217902
0.000998;-0.0369005;-0.0270123;-0.218785
0.001497;-0.0373801;-0.0278071;-0.220249
0.001996;-0.0379387;-0.0278858;-0.217321
0.002495;-0.0384262;-0.0282666;-0.21748
0.002994;-0.0388969;-0.0284818;-0.21487
0.003493;-0.0394259;-0.0285439;-0.214902
0.003992;-0.0399222;-0.0287509;-0.218753
0.004491;-0.0403547;-0.0289164;-0.212515
0.00499;-0.040906;-0.0288751;-0.217671
0.005489;-0.0414815;-0.0290324;-0.21678
0.005988;-0.0418261;-0.0289289;-0.215443
0.006487;-0.0424082;-0.0289247;-0.215093
0.006986;-0.0429688;-0.0295334;-0.220981
0.007485;-0.0433339;-0.0298231;-0.218785
0.007984;-0.0438638;-0.0304483;-0.217385
0.008483;-0.0443898;-0.0308871;-0.219262
0.008982;-0.0448744;-0.0310279;-0.216462
0.009481;-0.0453908;-0.0309906;-0.217066
0.00998;-0.0459105;-0.0311479;-0.217448
0.010479;-0.0462992;-0.031268;-0.217321
0.010978;-0.0467506;-0.0312265;-0.217066
0.011477;-0.0473336;-0.0311976;-0.219581
0.011976;-0.0478755;-0.031537;-0.218626
0.012475;-0.0482702;-0.0324518;-0.221077
0.012974;-0.0487757;-0.032692;-0.220504
0.013473;-0.0490017;-0.0328162;-0.217862
0.013972;-0.0484933;-0.0322324;-0.218308
0.014471;-0.0480293;-0.0320214;-0.21974
0.01497;-0.0475086;-0.0312639;-0.218817
0.015469;-0.0470042;-0.0314294;-0.218594
0.015968;-0.0465194;-0.0312142;-0.218212
0.016467;-0.0460559;-0.0309865;-0.21748
0.016966;-0.0456887;-0.0309865;-0.220567
0.017465;-0.0451152;-0.0308374;-0.220949
0.017964;-0.0447371;-0.0309823;-0.220504
0.018463;-0.0442714;-0.0309161;-0.221809
0.018962;-0.0437819;-0.0308623;-0.220599
0.019461;-0.0431789;-0.0301337;-0.220122
0.01996;-0.0426995;-0.029612;-0.221077
0.020459;-0.0421181;-0.0290903;-0.220345
0.020958;-0.0415159;-0.0290241;-0.219262
0.021457;-0.0410698;-0.0289951;-0.218371
0.021956;-0.0406912;-0.0288916;-0.220822
0.022455;-0.04017;-0.0288461;-0.221236
0.022954;-0.039705;-0.0288626;-0.22235
0.023453;-0.0392148;-0.0284735;-0.219835
0.023952;-0.0387202;-0.0286432;-0.221077
0.024451;-0.0381825;-0.0276664;-0.219772
0.02495;-0.0377611;-0.0269626;-0.219772
0.025449;-0.0372124;-0.027182;-0.220344
0.025948;-0.036697;-0.0271241;-0.219517
0.026447;-0.03618;-0.0269212;-0.219199
0.026946;-0.0357774;-0.0269378;-0.218498
0.027445;-0.0351882;-0.0267308;-0.219199
0.027944;-0.0347333;-0.0260394;-0.219358
0.028443;-0.0343366;-0.0255218;-0.219485
0.028942;-0.0338411;-0.0247021;-0.21869
0.029441;-0.033311;-0.02476;-0.219008
0.02994;-0.0328926;-0.024789;-0.220217
0.030439;-0.0324013;-0.0247145;-0.220217
0.030938;-0.0317844;-0.0243171;-0.219835
0.031437;-0.0313867;-0.0236341;-0.22009
0.031936;-0.030832;-0.0228683;-0.212706
0.032435;-0.0303199;-0.0228642;-0.217035
0.032934;-0.0298927;-0.0227234;-0.21678
0.033433;-0.0294495;-0.0227234;-0.220472
0.033932;-0.0289314;-0.0227689;-0.220313
0.034431;-0.0283648;-0.0227234;-0.221459
0.03493;-0.0279672;-0.0227234;-0.221618
0.035429;-0.0274848;-0.0224046;-0.219772
0.035928;-0.0269419;-0.0220361;-0.221777
0.036427;-0.0264721;-0.0217339;-0.222127
0.036926;-0.0260655;-0.0217753;-0.221968
0.037425;-0.0254991;-0.020761;-0.22079
0.037924;-0.0250332;-0.0206575;-0.220727
0.038423;-0.024587;-0.0205085;-0.219135
0.038922;-0.0240148;-0.0203843;-0.220122
0.039421;-0.0235618;-0.0199952;-0.216621
0.03992;-0.0230899;-0.0197427;-0.217385
0.040419;-0.0226055;-0.0194115;-0.219485
0.040918;-0.0220834;-0.0188195;-0.21748
0.041417;-0.021667;-0.0188899;-0.218085
0.041916;-0.0212328;-0.0185918;-0.220376
0.042415;-0.0207422;-0.0186953;-0.221236
0.042914;-0.020242;-0.0185007;-0.221554
0.043413;-0.0198225;-0.018538;-0.221554
0.043912;-0.0193024;-0.0181572;-0.221936
0.044411;-0.0187902;-0.0178632;-0.220758
0.04491;-0.0183816;-0.0174658;-0.220536
0.045409;-0.0179069;-0.0167786;-0.220663
0.045908;-0.017377;-0.016584;-0.221872
0.046407;-0.0169398;-0.016526;-0.220917
0.046906;-0.0165707;-0.0165136;-0.221713
0.047405;-0.0159499;-0.0163729;-0.218403
0.047904;-0.0154624;-0.0159589;-0.220663
0.048403;-0.0151348;-0.0157312;-0.222
0.048902;-0.0145605;-0.015458;-0.220535
0.049401;-0.0141163;-0.0149405;-0.221681
0.0499;-0.0137196;-0.0148743;-0.220726
0.050399;-0.0131886;-0.0147252;-0.221077
0.050898;-0.0126241;-0.0144603;-0.218403
0.051397;-0.0121574;-0.014423;-0.221681
0.051896;-0.0116551;-0.0143816;-0.221363
0.052395;-0.0110738;-0.013624;-0.22184
0.052894;-0.0104934;-0.0129534;-0.221841
0.053393;-0.0100375;-0.012498;-0.220217
0.053892;-0.00960634;-0.0128126;-0.221268
0.054391;-0.00905361;-0.0127754;-0.219072
0.05489;-0.00861646;-0.0124814;-0.216971
0.055389;-0.00820887;-0.0123945;-0.219199
0.055888;-0.00769768;-0.0123904;-0.217194
0.056387;-0.00720918;-0.0122206;-0.220504
0.056886;-0.00671276;-0.0118895;-0.219549
0.057385;-0.00612855;-0.011343;-0.22165
0.057884;-0.00557587;-0.0104943;-0.219135
0.058383;-0.00519985;-0.0106641;-0.221777
0.058882;-0.00465313;-0.0106061;-0.22235
0.059381;-0.00416166;-0.0102915;-0.222222
0.05988;-0.00362087;-0.0102625;-0.222127
0.060379;-0.00321527;-0.00991482;-0.221236
0.060878;-0.00267247;-0.00993964;-0.222191
0.061377;-0.00227081;-0.00892542;-0.22165
0.061876;-0.00185237;-0.00850728;-0.221077
0.062375;-0.00138953;-0.00858593;-0.222222
0.062874;-0.000899044;-0.00844518;-0.22235
0.063373;-0.000372052;-0.0081471;-0.222159
0.063872;7.79636e-05;-0.00791527;-0.221872
0.064371;0.00059706;-0.00782005;-0.221681
0.06487;0.00114379;-0.00782419;-0.220313
0.065369;0.00162539;-0.00694242;-0.220917
0.065868;0.00207837;-0.00679338;-0.222159
0.066367;0.00260142;-0.00635871;-0.221204
0.066866;0.00308598;-0.00626763;-0.221618
0.067365;0.00360605;-0.00619312;-0.221745
0.067864;0.00408763;-0.00591989;-0.221077
0.068363;0.00451693;-0.00580813;-0.216875
0.068862;0.00500348;-0.00545625;-0.217894
0.069361;0.00559069;-0.00550181;-0.216621
0.06986;0.00605548;-0.00539416;-0.216366
0.070359;0.00654401;-0.0046076;-0.218276
0.070858;0.00701083;-0.00434263;-0.217321
0.071357;0.0075516;-0.00439232;-0.217002
0.071856;0.00800655;-0.00408597;-0.219581
0.072355;0.00854538;-0.00406941;-0.219899
0.072854;0.00904672;-0.00366372;-0.214902
0.073353;0.00950168;-0.00368856;-0.217894
0.073852;0.0099744;-0.00344431;-0.220217
0.074351;0.0105181;-0.00245905;-0.21974
0.07485;0.0108843;-0.00232243;-0.220344
0.075349;0.0114044;-0.00220651;-0.221745
0.075848;0.0120063;-0.00222307;-0.221522
0.076347;0.0124583;-0.00191672;-0.221713
0.076846;0.0129064;-0.00174699;-0.222159
0.077345;0.0134285;-0.00147376;-0.221713
0.077844;0.0139032;-0.000741024;-0.218307
0.078343;0.0143197;-0.000583712;-0.216875
0.078842;0.0147953;-0.000782421;-0.220281
0.079341;0.0154131;-0.000244248;-0.215093
0.07984;0.0159272;1.24194e-05;-0.216907
0.080339;0.0163141;1.65592e-05;-0.220344
0.080838;0.0168352;0.00020285;-0.221331
0.081337;0.0172142;0.000405701;-0.222222
0.081836;0.0176118;0.000608551;-0.222286
0.082335;0.0181003;0.0014779;-0.21627
0.082834;0.0186708;0.0019043;-0.217957
0.083333;0.0190103;0.00188774;-0.220663
0.083832;0.0195234;0.00204092;-0.219612
0.084331;0.0199943;0.00206576;-0.221108
0.08483;0.0204984;0.00211957;-0.221522
0.085329;0.0210433;0.00238453;-0.219326
0.085828;0.0214567;0.00249629;-0.220726
0.086327;0.0220981;0.00321249;-0.220631
0.086826;0.0224348;0.00387898;-0.220026
0.087325;0.0229261;0.00372996;-0.220695
0.087824;0.0234641;0.00408597;-0.218467
0.088323;0.0237917;0.00412737;-0.219581
0.088822;0.0243107;0.00413151;-0.220376
0.089321;0.0248467;0.0046821;-0.217289
0.08982;0.0253835;0.00468213;-0.213501
0.090319;0.0258119;0.00515819;-0.214934
0.090818;0.0262875;0.00540656;-0.21627
0.091317;0.0268729;0.00615172;-0.213724
0.091816;0.0272518;0.00604822;-0.219644
0.092315;0.0278694;0.00613102;-0.215379
0.092814;0.0283295;0.00619726;-0.217766
0.093313;0.0287389;0.00678096;-0.21748
0.093812;0.0292018;0.00632973;-0.220154
0.094311;0.0298068;0.00658226;-0.217289
0.09481;0.0301846;0.00669817;-0.218849
0.095309;0.0307108;0.00791942;-0.21522
0.095808;0.0312456;0.00808501;-0.218435
0.096307;0.0318803;0.00823404;-0.21331
0.096806;0.0323588;0.00821334;-0.214997
0.097305;0.0327721;0.00830028;-0.214329
0.097804;0.0332954;0.00836652;-0.214583
0.098303;0.0336546;0.0083127;-0.217862
0.098802;0.0342181;0.00869772;-0.214774
0.099301;0.0347776;0.00893369;-0.212355
0.0998;0.035265;0.0099769;-0.214456
0.100299;0.0356618;0.010246;-0.217703
0.100798;0.0361405;0.0104861;-0.21713
0.101297;0.0366884;0.0106103;-0.219008
0.101796;0.0371423;0.0107013;-0.219485
0.102295;0.0376672;0.0110987;-0.216493
0.102794;0.0381588;0.0112892;-0.215156
0.103293;0.0386995;0.011757;-0.215634
0.103792;0.0391574;0.0122289;-0.217098
0.104291;0.039709;0.012349;-0.219485
0.10479;0.0401731;0.0124152;-0.218371
0.105289;0.0406692;0.012498;-0.219199
0.105788;0.0411616;0.0133467;-0.217066
0.106287;0.0416187;0.0130569;-0.219963
0.106786;0.041986;0.0132929;-0.220726
0.107285;0.042488;0.0139387;-0.217544
0.107784;0.043028;0.0141581;-0.21939
0.108283;0.0435392;0.0146673;-0.217353
0.108782;0.0439466;0.0149984;-0.216366
0.109281;0.0444855;0.0150357;-0.215761
0.10978;0.0450048;0.0159134;-0.211019
0.110279;0.0454234;0.0157105;-0.212133
0.110778;0.04595;0.0163025;-0.208186
0.111277;0.0464365;0.0168448;-0.207963
0.111776;0.0468454;0.0168697;-0.207008
0.112275;0.0472952;0.0164971;-0.214615
0.112774;0.0478399;0.0171636;-0.210764
0.113273;0.0482228;0.0167703;-0.213438
0.113772;0.047904;0.0168158;-0.215952
0.114271;0.0474562;0.017056;-0.212037
0.11477;0.0469213;0.0165219;-0.215316
0.115269;0.0464285;0.016526;-0.216716
0.115768;0.0460016;0.0165219;-0.218785
0.116267;0.0456236;0.0162859;-0.219931
0.116766;0.0451162;0.0164598;-0.21748
0.117265;0.0446157;0.0159258;-0.218276
0.117764;0.0442536;0.0152717;-0.217894
0.118263;0.0437789;0.0150564;-0.219326
0.118762;0.0432243;0.0149446;-0.217034
0.119261;0.0426798;0.0144396;-0.221395
0.11976;0.042198;0.0142657;-0.219294
0.120259;0.0416828;0.0133922;-0.220249
0.120758;0.0411961;0.0129948;-0.220408
0.121257;0.0407601;0.0124566;-0.215507
0.121756;0.0402243;0.0125104;-0.217416
0.122255;0.0397849;0.0125146;-0.215666
0.122754;0.0393223;0.0122331;-0.216907
0.123253;0.0388515;0.0121668;-0.214902
0.123752;0.0383472;0.0118812;-0.216366
0.124251;0.0379013;0.0112354;-0.219422
0.12475;0.0373742;0.0111526;-0.217671
0.125249;0.0368116;0.0105026;-0.21713
0.125748;0.0363111;0.0103246;-0.218244
0.126247;0.0357991;0.0101963;-0.219963
0.126746;0.0353134;0.0101342;-0.216016
0.127245;0.0348211;0.00989822;-0.216939
0.127744;0.0343366;0.0101342;-0.216207
0.128243;0.033846;0.00971197;-0.218753
0.128742;0.0333535;0.0102211;-0.220536
0.129241;0.0329607;0.00965813;-0.217926
0.12974;0.0325434;0.00861906;-0.218562
0.130239;0.0320313;0.00835824;-0.216684
0.130738;0.0315307;0.0083334;-0.215761
0.131237;0.0310681;0.0082713;-0.212674
0.131736;0.0304699;0.00809742;-0.215761
0.132235;0.0299687;0.00767515;-0.216143
0.132734;0.0295009;0.00735226;-0.21783
0.133233;0.028962;0.00768345;-0.21331
0.133732;0.0284052;0.00700036;-0.213438
0.134231;0.0280214;0.00671472;-0.215029
0.13473;0.0274838;0.00628005;-0.215029
0.135229;0.0269784;0.00623451;-0.214106
0.135728;0.0264178;0.00610204;-0.213533
0.136227;0.0260704;0.00607721;-0.210255
0.136726;0.0255839;0.00546037;-0.214775
0.137225;0.0250164;0.0055846;-0.212896
0.137724;0.0246087;0.00588679;-0.207454
0.138223;0.0240987;0.00481459;-0.216111
0.138722;0.0236012;0.00469453;-0.215538
0.139221;0.023087;0.00412737;-0.219135
0.13972;0.0226105;0.00404043;-0.22114
0.140219;0.0221525;0.00389968;-0.219103
0.140718;0.0217084;0.00367613;-0.218658
0.141217;0.0212624;0.00322905;-0.217894
0.141716;0.0207471;0.00256254;-0.215698
0.142215;0.0201591;0.00228931;-0.216207
0.142714;0.0197337;0.00224377;-0.214934
0.143213;0.0192807;0.00217753;-0.216971
0.143712;0.0187527;0.0019871;-0.219167
0.144211;0.0183302;0.00192914;-0.219867
0.14471;0.0179385;0.00167661;-0.217512
0.145209;0.0173721;0.00142409;-0.219453
0.145708;0.016927;0.000873497;-0.216525
0.146207;0.0165125;0.000546454;-0.21643
0.146706;0.0159588;0.000298066;-0.211623
0.147205;0.0155137;0.000248388;-0.212419
0.147704;0.0149829;-2.0699e-05;-0.220917
0.148203;0.0145457;2.89786e-05;-0.218053
0.148702;0.0140857;-4.1398e-06;-0.218498
0.149201;0.0136308;-0.000306345;-0.218212
0.1497;0.0132074;-0.000534035;-0.21748
0.150199;0.0126745;-0.00197882;-0.217257
0.150698;0.0122215;-0.00190844;-0.220408
0.151197;0.0117222;-0.00202022;-0.221204
0.151696;0.0111587;-0.00218167;-0.220185
0.152195;0.0106227;-0.00210715;-0.221427
0.152694;0.0101017;-0.00246319;-0.22009
0.153193;0.00965766;-0.00285646;-0.221363
0.153692;0.00911973;-0.00291442;-0.221395
0.154191;0.00862731;-0.00384587;-0.222254
0.15469;0.00819307;-0.00365957;-0.22184
0.155189;0.00775688;-0.00392452;-0.220631
0.155688;0.00718351;-0.00366786;-0.220472
0.156187;0.00672262;-0.00408597;-0.220058
0.156686;0.00621343;-0.00413151;-0.22114
0.157185;0.00567949;-0.00440061;-0.218976
0.157684;0.00524131;-0.00452894;-0.216843
0.158183;0.00477948;-0.00458688;-0.216939
0.158682;0.00420903;-0.00461588;-0.212928
0.159181;0.0036485;-0.00547696;-0.219358
0.15968;0.00324784;-0.00576259;-0.220217
0.160179;0.00270799;-0.0060979;-0.219071
0.160678;0.00223627;-0.00608962;-0.221522
0.161177;0.00180796;-0.0061393;-0.22044
0.161676;0.00130465;-0.00620139;-0.217926
0.162175;0.000822068;-0.00647463;-0.221204
0.162674;0.000385869;-0.00684306;-0.218658
0.163173;-1.38163e-05;-0.00744332;-0.219549
0.163672;-0.000570414;-0.00777038;-0.21783
0.164171;-0.00102536;-0.00794011;-0.216111
0.16467;-0.00154249;-0.00811398;-0.219581
0.165169;-0.00207146;-0.008292;-0.218053
0.165668;-0.00257675;-0.00830855;-0.217002
0.166167;-0.00304157;-0.00877222;-0.220599
0.166666;-0.00352218;-0.00926076;-0.219994
0.167165;-0.00402842;-0.00880949;-0.219103
0.167664;-0.00453568;-0.00989822;-0.219071
0.168163;-0.00492454;-0.0100638;-0.221236
0.168662;-0.00555122;-0.0102625;-0.21904
0.169161;-0.00601799;-0.0103991;-0.220345
0.16966;-0.00647788;-0.01078;-0.220504
0.170159;-0.00704636;-0.010573;-0.21643
0.170658;-0.00757923;-0.0112768;-0.216493
0.171157;-0.00798187;-0.0118522;-0.219676
0.171656;-0.00854144;-0.0120302;-0.219772
0.172155;-0.00910101;-0.0124069;-0.221459
0.172654;-0.00956088;-0.0123945;-0.220663
0.173153;-0.010078;-0.0124235;-0.220153
0.173652;-0.0104984;-0.0127133;-0.217289
0.174151;-0.0110205;-0.0131687;-0.220408
0.17465;-0.0114054;-0.0130983;-0.221713
0.175149;-0.0119224;-0.0135537;-0.221204
0.175648;-0.0124366;-0.0141664;-0.213756
0.176147;-0.0129084;-0.0143195;-0.215634
0.176646;-0.0134245;-0.0146673;-0.216716
0.177145;-0.0139407;-0.0144686;-0.215188
0.177644;-0.0143355;-0.0143195;-0.213724
0.178143;-0.0147736;-0.0146673;-0.216462
0.178642;-0.0153775;-0.0148784;-0.220567
0.179141;-0.0158719;-0.0156981;-0.221172
0.17964;-0.0163043;-0.0163894;-0.22235
0.180139;-0.0167336;-0.0163563;-0.222127
0.180638;-0.0172339;-0.0164432;-0.22235
0.181137;-0.017594;-0.016526;-0.22235
0.181636;-0.0180885;-0.0165509;-0.221936
0.182135;-0.018584;-0.016969;-0.222254
0.182634;-0.0190833;-0.0174948;-0.222286
0.183133;-0.0194988;-0.0174658;-0.221809
0.183632;-0.0199914;-0.0175817;-0.221745
0.184131;-0.0206474;-0.0185297;-0.22235
0.18463;-0.0210877;-0.0186415;-0.22235
0.185129;-0.0215406;-0.0186125;-0.221713
0.185628;-0.0220636;-0.0190016;-0.22235
0.186127;-0.0225809;-0.0192955;-0.221108
0.186626;-0.0229685;-0.0195481;-0.222127
0.187125;-0.0234819;-0.019664;-0.22235
0.187624;-0.0238341;-0.0193949;-0.222127
0.188123;-0.0243077;-0.0199703;-0.221904
0.188622;-0.0247855;-0.0203636;-0.221077
0.189121;-0.025348;-0.0208439;-0.222127
0.18962;-0.0257942;-0.0209556;-0.222063
0.190119;-0.026322;-0.0208479;-0.21853
0.190618;-0.0268601;-0.0207776;-0.221427
0.191117;-0.0273238;-0.0214069;-0.221809
0.191616;-0.0278763;-0.0221107;-0.221554
0.192115;-0.0283886;-0.0222845;-0.22235
0.192614;-0.0288504;-0.0224502;-0.222286
0.193113;-0.0292443;-0.0227234;-0.222
0.193612;-0.0297278;-0.0227234;-0.221459
0.194111;-0.0302172;-0.0229842;-0.221713
0.19461;-0.0306663;-0.0233402;-0.222
0.195109;-0.0311194;-0.0234892;-0.220153
0.195608;-0.031674;-0.0233609;-0.221395
0.196107;-0.0321427;-0.0239901;-0.221618
0.196606;-0.0326804;-0.0246317;-0.222254
0.197105;-0.0331414;-0.0245903;-0.217193
0.197604;-0.0336507;-0.0247932;-0.219517
0.198103;-0.0342132;-0.0252238;-0.21853
0.198602;-0.0346721;-0.0250167;-0.218499
0.199101;-0.0350835;-0.0250788;-0.218944
0.1996;-0.0355779;-0.0255425;-0.216939
0.200099;-0.0360389;-0.0254722;-0.212897
0.200598;-0.036557;-0.0259483;-0.215252
0.201097;-0.0369746;-0.0265238;-0.213119
0.201596;-0.0374432;-0.0268219;-0.212769
0.202095;-0.0380207;-0.027004;-0.213151
0.202594;-0.0385289;-0.027567;-0.215188
0.203093;-0.038965;-0.0273683;-0.213692
0.203592;-0.0395187;-0.0280223;-0.212356
0.204091;-0.0400072;-0.0280844;-0.211051
0.20459;-0.0405084;-0.0286225;-0.217989
0.205089;-0.0409702;-0.0285894;-0.214997
0.205588;-0.0414736;-0.0286349;-0.216048
0.206087;-0.0418271;-0.028875;-0.211464
0.206586;-0.0424062;-0.0289786;-0.213533
0.207085;-0.0429451;-0.028991;-0.215857
0.207584;-0.0434484;-0.0293181;-0.214265
0.208083;-0.043913;-0.0300632;-0.218594
0.208582;-0.0444757;-0.029554;-0.216843
0.209081;-0.0449465;-0.0300301;-0.220122
0.20958;-0.0454146;-0.030531;-0.217894
0.210079;-0.0458741;-0.0309161;-0.216939
0.210578;-0.0464039;-0.0309534;-0.217448
0.211077;-0.0468187;-0.0309865;-0.215125
0.211576;-0.047318;-0.0310817;-0.217575
0.212075;-0.0478794;-0.0313052;-0.216621
0.212574;-0.0483552;-0.0312307;-0.217257
0.213073;-0.0487531;-0.0314956;-0.218753
0.213572;-0.0487808;-0.0315204;-0.217862
0.214071;-0.0483235;-0.0312846;-0.219867
0.21457;-0.0478211;-0.03109;-0.218467
0.215069;-0.0472894;-0.0310072;-0.216971
0.215568;-0.0468029;-0.0309865;-0.214074
0.216067;-0.0464256;-0.0310569;-0.219294
0.216566;-0.0458467;-0.0308043;-0.214679
0.217065;-0.0455042;-0.0309865;-0.216461
0.217564;-0.0450312;-0.0309203;-0.211942
0.218063;-0.0445505;-0.0307174;-0.216175
0.218562;-0.0440662;-0.030175;-0.214965
0.219061;-0.0435875;-0.0294298;-0.211687
0.21956;-0.0430358;-0.0297776;-0.216589
0.220059;-0.0424626;-0.0291814;-0.218753
0.220558;-0.0420254;-0.0290531;-0.216621
0.221057;-0.0414961;-0.0289537;-0.216048
0.221556;-0.0409613;-0.028933;-0.220504
0.222055;-0.0405146;-0.0289578;-0.217671
0.222554;-0.0400959;-0.0287261;-0.217575
0.223053;-0.039563;-0.0278775;-0.214424
0.223552;-0.039123;-0.0269792;-0.214679
0.224051;-0.0388041;-0.0276291;-0.219994
0.22455;-0.0381844;-0.0269626;-0.217575
0.225049;-0.03762;-0.0268757;-0.210255
0.225548;-0.037162;-0.0267598;-0.213342
0.226047;-0.0366605;-0.0262919;-0.214074
0.226546;-0.0361573;-0.0257164;-0.217353
0.227045;-0.0356924;-0.0259483;-0.214679
0.227544;-0.0351763;-0.0252196;-0.21261
0.228043;-0.0347126;-0.0249174;-0.216207
0.228542;-0.0341914;-0.024789;-0.218085
0.229041;-0.0338272;-0.024789;-0.220726
0.22954;-0.0332874;-0.0247642;-0.218689
0.230039;-0.0327141;-0.0247766;-0.221395
0.230538;-0.0322543;-0.0243461;-0.221586
0.231037;-0.0318268;-0.0231374;-0.220217
0.231536;-0.0312841;-0.0236093;-0.220344
0.232035;-0.0307807;-0.0230505;-0.22149
0.232534;-0.0303041;-0.0228311;-0.215952
0.233033;-0.0297714;-0.0226572;-0.213947
0.233532;-0.0293547;-0.0227855;-0.219612
0.234031;-0.0288821;-0.0226903;-0.218626
0.23453;-0.0283677;-0.022504;-0.214551
0.235029;-0.0278567;-0.0227317;-0.215634
0.235528;-0.0274473;-0.0224502;-0.215284
0.236027;-0.0269389;-0.022326;-0.216875
0.236526;-0.0264257;-0.0219865;-0.214424
0.237025;-0.0259667;-0.0215269;-0.216589
0.237524;-0.0254971;-0.0216511;-0.218626
0.238023;-0.0249541;-0.0210798;-0.217735
0.238522;-0.0243818;-0.0206244;-0.215698
0.239021;-0.023918;-0.0205499;-0.217098
0.23952;-0.0235291;-0.0203346;-0.218562
0.240019;-0.0229824;-0.0203595;-0.217703
0.240518;-0.0225048;-0.0195398;-0.213247
0.241017;-0.022042;-0.0194197;-0.214297
0.241516;-0.0215131;-0.0188775;-0.214743
0.242015;-0.0211735;-0.0188692;-0.215856
0.242514;-0.0206149;-0.0186125;-0.214584
0.243013;-0.0201906;-0.0185504;-0.216207
0.243512;-0.0196153;-0.0176065;-0.217798
0.244011;-0.0191544;-0.0176687;-0.217289
0.24451;-0.0187537;-0.0172919;-0.218594
0.245009;-0.0181507;-0.016526;-0.211178
0.245508;-0.0177253;-0.0165219;-0.211464
0.246007;-0.0172705;-0.0164722;-0.216907
0.246506;-0.0167573;-0.0163315;-0.213915
