t;vds;corrente;vg
0.00998;0.00916415;0.0037518;-0.000635056
0.01996;0.011064;0.00469124;-0.000398121
0.02994;0.0130584;0.00564355;-0.00039493
0.03992;0.0149492;0.00663137;-0.000398121
0.0499;0.0168678;0.00761771;-0.000398121
0.05988;0.0187714;0.00859375;-0.000398121
0.06986;0.0206692;0.00958202;-0.000398121
0.07984;0.0226687;0.0105382;-0.000403706
0.08982;0.0244805;0.0114545;-0.000398121
0.0998;0.0264554;0.0124112;-0.000399717
0.10978;0.028432;0.0134065;-0.000398121
0.11976;0.0304206;0.0143845;-0.000398121
0.12974;0.0324564;0.0153549;-0.000398121
0.13972;0.0344036;0.016285;-0.000398121
0.1497;0.0363854;0.0172878;-0.000398121
0.15968;0.0383541;0.018239;-0.000398121
0.16966;0.0403002;0.0192368;-0.000398121
0.17964;0.0422098;0.0201934;-0.000397324
0.18962;0.0441964;0.0211634;-0.000395728
0.1996;0.0460497;0.0221715;-0.000398121
0.20958;0.0479052;0.0230899;-0.000398121
0.21956;0.0473485;0.0227934;-0.000397324
0.22954;0.0454586;0.0218183;-0.000398121
0.23952;0.0435568;0.020835;-0.000393334
0.2495;0.0416284;0.0198942;-0.000396526
0.25948;0.0396569;0.0189576;-0.000390143
0.26946;0.0377374;0.017999;-0.000398121
0.27944;0.0357348;0.0169528;-0.000398121
0.28942;0.0337187;0.0159664;-0.000396526
0.2994;0.031819;0.0150414;-0.000398121
0.30938;0.0297189;0.0140767;-0.000405302
0.31936;0.0278035;0.0131066;-0.000398121
0.32934;0.0258591;0.0121534;-0.000398121
0.33932;0.0239367;0.0111863;-0.000398121
0.3493;0.021969;0.0102336;-0.000397324
0.35928;0.020016;0.00926746;-0.000398121
0.36926;0.018121;0.00828103;-0.000390941
0.37924;0.0162815;0.00729521;-0.000397324
0.38922;0.0143344;0.00632516;-0.000398121
0.3992;0.0125088;0.00535906;-0.000390143
0.40918;0.0104885;0.00437069;-0.000398121
0.41916;0.00841315;0.00341742;-0.000398121
0.42914;0.00648678;0.00245775;-0.000398121
0.43912;0.00453173;0.00144176;-0.000398919
0.4491;0.00248694;0.000484039;-0.000398919
0.45908;0.000656273;-0.000486019;-0.000396526
0.46906;-0.00127505;-0.00144076;-0.00038376
0.47904;-0.00316985;-0.00243107;-0.000398919
0.48902;-0.00526008;-0.0034041;-0.000398121
0.499;-0.00724074;-0.00431785;-0.000397324
0.50898;-0.00921153;-0.00532396;-0.000398121
0.51896;-0.0112199;-0.00628807;-0.000398121
0.52894;-0.0132163;-0.00729178;-0.000398121
0.53892;-0.0151298;-0.00825981;-0.000398121
0.5489;-0.0170494;-0.00925211;-0.0004061
0.55888;-0.0189086;-0.0101925;-0.000398121
0.56886;-0.0207906;-0.0111389;-0.000395728
0.57884;-0.0226953;-0.0120922;-0.000398121
0.58882;-0.0246621;-0.0130572;-0.000398121
0.5988;-0.0265787;-0.0140673;-0.000410887
0.60878;-0.0285801;-0.0150597;-0.000400515
0.61876;-0.0305509;-0.0160292;-0.000398121
0.62874;-0.0324504;-0.0169765;-0.000398121
0.63872;-0.0344263;-0.0179906;-0.000396526
0.6487;-0.0363982;-0.0189819;-0.000398121
0.65868;-0.0383314;-0.0199523;-0.000404504
0.66866;-0.0402972;-0.0209189;-0.000398121
0.67864;-0.0423145;-0.0219132;-0.000400515
0.68862;-0.0443455;-0.0228606;-0.000398121
0.6986;-0.0462136;-0.0238288;-0.000398121
0.70858;-0.0481569;-0.0248083;-0.000398121
0.71856;-0.0478303;-0.0246743;-0.000398121
0.72854;-0.0459206;-0.0237023;-0.000393334
0.73852;-0.043995;-0.0227431;-0.000398121
0.7485;-0.0419274;-0.0217536;-0.000398121
0.75848;-0.0400091;-0.0208177;-0.000398121
0.76846;-0.0381244;-0.0198567;-0.000398121
0.77844;-0.0361188;-0.0188687;-0.000398121
0.78842;-0.0341637;-0.0178725;-0.000393334
0.7984;-0.0322276;-0.0168501;-0.000398121
0.80838;-0.0302362;-0.015916;-0.000401313
0.81836;-0.0283037;-0.0149446;-0.000398121
0.82834;-0.0262884;-0.013932;-0.000398919
0.83832;-0.0243958;-0.0129462;-0.000398121
0.8483;-0.0224653;-0.0119781;-0.000397324
0.85828;-0.0205764;-0.0110119;-0.000398121
0.86826;-0.0187299;-0.0100859;-0.000407695
0.87824;-0.0168293;-0.00908274;-0.000398121
0.88822;-0.014902;-0.00815508;-0.000398121
0.8982;-0.0129202;-0.00717024;-0.000400515
0.90818;-0.0109287;-0.00619574;-0.000397324
0.91816;-0.00895097;-0.0052109;-0.000398121
0.92814;-0.00700387;-0.00422843;-0.000401313
0.93812;-0.00496697;-0.00330432;-0.000398121
0.9481;-0.0029557;-0.00233723;-0.000401313
0.95808;-0.00105695;-0.00137853;-0.000398121
0.96806;0.000860557;-0.000387725;-0.000396526
0.97804;0.00272576;0.000587765;-0.000398121
0.98802;0.00480711;0.00154893;-0.000388547
0.998;0.00682825;0.00257381;-0.000398121
1.00798;0.00872893;0.0035419;-0.000398121
1.01796;0.0107995;0.00453418;-0.000397324
1.02794;0.0127091;0.00548252;-0.000399717
1.03792;0.0146334;0.00646244;-0.000398121
1.0479;0.016473;0.0074523;-0.000397324
1.05788;0.0183727;0.00843567;-0.000398121
1.06786;0.0202479;0.00937461;-0.000410887
1.07784;0.022268;0.0103234;-0.000398919
1.08782;0.0241568;0.0112703;-0.000393334
1.0978;0.0261819;0.0122729;-0.000398121
1.10778;0.0280659;0.0132173;-0.000398919
1.11776;0.0299922;0.0142353;-0.000398121
1.12774;0.0320015;0.0151524;-0.000398121
1.13772;0.033923;0.0161181;-0.000398121
1.1477;0.0360024;0.0170832;-0.000399717
1.15768;0.0379102;0.0180469;-0.000396526
1.16766;0.0398779;0.0190584;-0.000396526
1.17764;0.041829;0.0200141;-0.000398121
1.18762;0.0437511;0.021032;-0.000398121
1.1976;0.0456816;0.0219893;-0.000398121
1.20758;0.04754;0.0229594;-0.00039493
1.21756;0.0477385;0.0230424;-0.000388547
1.22754;0.0458663;0.0220406;-0.000398121
1.23752;0.0439634;0.0210834;-0.000396526
1.2475;0.0419649;0.02008;-0.000398121
1.25748;0.0400337;0.0191448;-0.000395728
1.26746;0.0381599;0.0181902;-0.00039493
1.27744;0.0360813;0.0171677;-0.000393334
1.28742;0.0341707;0.0162272;-0.000390143
1.2974;0.0322187;0.0152671;-0.000397324
1.30738;0.0302233;0.0142891;-0.000390941
1.31736;0.0281932;0.0132933;-0.000398121
1.32734;0.0262272;0.0122976;-0.000398121
1.33732;0.024302;0.0113695;-0.000398919
1.3473;0.0224259;0.0103965;-0.000390143
1.35728;0.0204304;0.00940671;-0.000398121
1.36726;0.0184378;0.00844848;-0.00039493
1.37724;0.0166072;0.00745771;-0.000398121
1.38722;0.0147283;0.00653062;-0.000398121
1.3972;0.0127949;0.00557189;-0.000398121
1.40718;0.0109218;0.00457667;-0.00039493
1.41716;0.00885426;0.0036229;-0.000388547
1.42714;0.00690914;0.00262667;-0.000398919
1.43712;0.00497684;0.00160624;-0.000398121
1.4471;0.00291918;0.000660374;-0.00039493
1.45708;0.000942468;-0.000309195;-0.000398121
1.46706;-0.000984903;-0.00127777;-0.000398121
1.47704;-0.00286393;-0.00221523;-0.000387749
1.48702;-0.0047923;-0.00322727;-0.000398121
1.497;-0.00684502;-0.00414844;-0.000394132
1.50698;-0.00881577;-0.00510911;-0.000402908
1.51696;-0.010758;-0.0060668;-0.000397324
1.52694;-0.0127979;-0.00707739;-0.000398121
1.53692;-0.0147706;-0.00806274;-0.000398121
1.5469;-0.0166596;-0.00896172;-0.000396526
1.55688;-0.0185592;-0.00995148;-0.000398121
1.56686;-0.0204087;-0.0109112;-0.00039493
1.57684;-0.02234;-0.0119144;-0.000398121
1.58682;-0.0242584;-0.0128374;-0.000398121
1.5968;-0.0261415;-0.0138293;-0.000390143
1.60678;-0.0282258;-0.0148656;-0.000398121
1.61676;-0.0301501;-0.015833;-0.000394132
1.62674;-0.0320587;-0.016776;-0.000398121
1.63672;-0.0340938;-0.0177802;-0.000398919
1.6467;-0.0360626;-0.0187951;-0.000398919
1.65668;-0.0380374;-0.0198032;-0.000398919
1.66666;-0.0399075;-0.020759;-0.000398121
1.67664;-0.0418517;-0.0216865;-0.00039493
1.68662;-0.0439268;-0.0226714;-0.000402908
1.6966;-0.0458612;-0.0236614;-0.000398121
1.70658;-0.0478066;-0.0246033;-0.000398121
1.71656;-0.0482485;-0.0248774;-0.000398121
1.72654;-0.0463894;-0.0239439;-0.000398919
1.73652;-0.0444345;-0.0229515;-0.000400515
1.7465;-0.042421;-0.0219813;-0.000401313
1.75648;-0.0403466;-0.0210202;-0.000398121
1.76646;-0.0384638;-0.0200187;-0.000388547
1.77644;-0.0365461;-0.0190826;-0.000398121
1.78642;-0.0346119;-0.0180524;-0.000398121
1.7964;-0.0326175;-0.0170378;-0.000390143
1.80638;-0.0306101;-0.0161056;-0.00039493
1.81636;-0.0287329;-0.0151165;-0.000398121
1.82634;-0.0266774;-0.0140989;-0.000398121
1.83632;-0.024749;-0.0131204;-0.000395728
1.8463;-0.0228353;-0.0121613;-0.000396526
1.85628;-0.0209257;-0.0112075;-0.000398121
1.86626;-0.0190557;-0.010278;-0.000398121
1.87624;-0.0172053;-0.00927536;-0.000404504
1.88622;-0.015273;-0.00833389;-0.000398121
1.8962;-0.0133149;-0.0073856;-0.000397324
1.90618;-0.0113383;-0.00638345;-0.000398121
1.91616;-0.0093418;-0.00539807;-0.000395728
1.92614;-0.00748846;-0.00443244;-0.000396526
1.93612;-0.00542981;-0.00350188;-0.000398121
1.9461;-0.00339586;-0.00251307;-0.000397324
1.95608;-0.00142506;-0.00154795;-0.000395728
1.96606;0.000473702;-0.000559613;-0.000397324
1.97604;0.00234976;0.000383283;-0.000398121
1.98602;0.00439063;0.00132173;-0.000398121
1.996;0.00631408;0.00234612;-0.000401313
2.00598;0.00833319;0.00334038;-0.000398919
2.01596;0.0102862;0.00429414;-0.000397324
2.02594;0.0123399;0.00530667;-0.000397324
2.03592;0.014221;0.0062856;-0.000398121
2.0459;0.016096;0.00723695;-0.000398121
2.05588;0.0180204;0.00818918;-0.000398121
2.06586;0.0197988;0.00916272;-0.000398121
2.07584;0.0218584;0.0101688;-0.000396526
2.08582;0.023762;0.0110944;-0.000398121
2.0958;0.0257261;0.0120734;-0.000400515
2.10578;0.0275892;0.0130064;-0.000391739
2.11576;0.0295718;0.0140184;-0.000400515
2.12574;0.0316098;0.0149851;-0.000398121
2.13572;0.0335885;0.0159313;-0.000398121
2.1457;0.0355641;0.0168615;-0.000398121
2.15568;0.0375479;0.0178844;-0.000395728
2.16566;0.0394428;0.0188658;-0.000398121
2.17564;0.0414007;0.0198486;-0.000397324
2.18562;0.0434098;0.0207936;-0.000391739
2.1956;0.0452941;0.0217413;-0.000390941
2.20558;0.0470997;0.0227416;-0.000401313
2.21556;0.0479358;0.0231076;-0.000386154
2.22554;0.0461565;0.022253;-0.000390143
2.23552;0.0442626;0.0212691;-0.000398121
2.2455;0.0423203;0.0202725;-0.000398121
2.25548;0.0404098;0.0193172;-0.000398121
2.26546;0.0384727;0.0183877;-0.000398121
2.27544;0.0365648;0.0173984;-0.000394132
2.28542;0.0345013;0.0164178;-0.000398121
2.2954;0.0326046;0.0154484;-0.000392537
2.30538;0.0305282;0.0144995;-0.000398121
2.31536;0.0285612;0.0134834;-0.000394132
2.32534;0.026632;0.0125412;-0.000398121
2.33532;0.0246799;0.0115656;-0.000391739
2.3453;0.0227811;0.0106172;-0.000388547
2.35528;0.0208616;0.00967145;-0.000393334
2.36526;0.0189056;0.00869595;-0.000389345
2.37524;0.0170494;0.00771556;-0.000394132
2.38522;0.0150983;0.00674149;-0.000397324
2.3952;0.0132261;0.00574527;-0.000400515
2.40518;0.0112475;0.00477127;-0.000404504
2.41516;0.00924507;0.00381109;-0.000382962
2.42514;0.00724468;0.00282474;-0.000398121
2.43512;0.00538343;0.00185961;-0.000387749
2.4451;0.00336033;0.000859916;-0.000398121
2.45508;0.0013915;-5.68008e-05;-0.000398121
2.46506;-0.000546732;-0.00103822;-0.000398121
2.47504;-0.00245931;-0.0020152;-0.000392537
2.48502;-0.00437582;-0.00302377;-0.000388547
2.495;-0.00645916;-0.00392568;-0.000398121
2.50498;-0.00841511;-0.00489474;-0.000394132
2.51496;-0.0104382;-0.00589889;-0.000397324
2.52494;-0.0123686;-0.00690846;-0.000398121
2.53492;-0.0144075;-0.00786367;-0.000393334
2.5449;-0.0162983;-0.00880171;-0.000398121
2.55488;-0.0181606;-0.00977069;-0.000398121
2.56486;-0.0200387;-0.0107314;-0.000398121
2.57484;-0.0219492;-0.0116892;-0.000398121
2.58482;-0.0238587;-0.0126255;-0.000397324
2.5948;-0.0257813;-0.0136124;-0.000398121
2.60478;-0.0277649;-0.0146107;-0.000398121
2.61476;-0.0297109;-0.0156088;-0.000414876
2.62474;-0.0316789;-0.016572;-0.000398121
2.63472;-0.0336556;-0.017554;-0.000399717
2.6447;-0.0355691;-0.0185585;-0.000393334
2.65468;-0.0375104;-0.019575;-0.000396526
2.66466;-0.0394536;-0.0205184;-0.000398121
2.67464;-0.0413642;-0.0214928;-0.000397324
2.68462;-0.0434818;-0.0224477;-0.000391739
2.6946;-0.0454351;-0.0234134;-0.000397324
2.70458;-0.0473129;-0.0244101;-0.000398121
2.71456;-0.0484716;-0.0249352;-0.000399717
2.72454;-0.0466568;-0.024091;-0.000398121
2.73452;-0.044747;-0.0231525;-0.000400515
2.7445;-0.0427606;-0.0221503;-0.000391739
2.75448;-0.0407612;-0.0212058;-0.000398121
2.76446;-0.0388376;-0.0202246;-0.000398121
2.77444;-0.0369822;-0.0192915;-0.000395728
2.78442;-0.0349475;-0.0182727;-0.000397324
2.7944;-0.0330023;-0.0172497;-0.000398121
2.80438;-0.030984;-0.0162593;-0.000399717
2.81436;-0.0290912;-0.0153165;-0.00039493
2.82434;-0.0271097;-0.0143632;-0.000398121
2.83432;-0.0251545;-0.013359;-0.000397324
2.8443;-0.0232637;-0.0123614;-0.000396526
2.85428;-0.0213126;-0.0113962;-0.000398121
2.86426;-0.0193775;-0.0104489;-0.000398121
2.87424;-0.0175517;-0.0094398;-0.000395728
2.88422;-0.0156351;-0.0084964;-0.000398121
2.8942;-0.0137038;-0.00757774;-0.000399717
2.90418;-0.0117192;-0.00658098;-0.000398121
2.91416;-0.00969811;-0.00558374;-0.000398121
2.92414;-0.00775689;-0.00459643;-0.000393334
2.93412;-0.00573277;-0.0036229;-0.000398121
2.9441;-0.00374028;-0.00268594;-0.000398121
2.95408;-0.00175073;-0.0017307;-0.000398121
2.96406;0.000129281;-0.000741869;-0.000398121
2.97404;0.0020004;0.000189171;-0.000398121
2.98402;0.00404718;0.00115479;-0.000402111
2.994;0.00600516;0.00215745;-0.000399717
3.00398;0.00792068;0.00315368;-0.000398121
3.01396;0.00998821;0.00412474;-0.000398919
3.02394;0.0119856;0.0051017;-0.000398121
3.03392;0.0138183;0.00603816;-0.000399717
3.0439;0.0157486;0.00698996;-0.000398121
3.05388;0.0176424;0.00797827;-0.000398121
3.06386;0.0194258;0.00895875;-0.000404504
3.07384;0.0214507;0.00992777;-0.000399717
3.08382;0.0234048;0.010882;-0.000398121
3.0938;0.0253155;0.0118571;-0.000407695
3.10378;0.0272743;0.0128567;-0.000392537
3.11376;0.0292048;0.0138105;-0.000398121
3.12374;0.0312635;0.0148039;-0.000398121
3.13372;0.0332371;0.0157268;-0.000382962
3.1437;0.035187;0.0166703;-0.000398121
3.15368;0.0371856;0.0176735;-0.000398121
3.16366;0.0391269;0.0186608;-0.000402111
3.17364;0.0410581;0.0196406;-0.000397324
3.18362;0.0430103;0.0205718;-0.000398121
3.1936;0.0448825;0.0215501;-0.000396526
3.20358;0.0467594;0.0225539;-0.000401313
3.21356;0.0480934;0.0232133;-0.000398121
3.22354;0.0466292;0.0224644;-0.000398121
3.23352;0.0446829;0.0214464;-0.000398121
3.2435;0.0427656;0.0204853;-0.000398121
3.25348;0.0408185;0.0195262;-0.000398121
3.26346;0.038879;0.0185418;-0.000398121
3.27344;0.0369753;0.0176043;-0.000398121
3.28342;0.0349742;0.0166297;-0.000390143
3.2934;0.0330338;0.0156469;-0.000389345
3.30338;0.0310324;0.0147031;-0.000364612
3.31336;0.0290547;0.0137398;-0.000396526
3.32334;0.027084;0.0127496;-0.000390941
3.33332;0.0250844;0.0117968;-0.000393334
3.3433;0.0231719;0.0107975;-0.000394132
3.35328;0.0212129;0.00984435;-0.000391739
3.36326;0.0192334;0.00889799;-0.000394132
3.37324;0.017378;0.00793977;-0.000398121
3.38322;0.0155562;0.00696819;-0.000390143
3.3932;0.0135873;0.00598731;-0.000398121
3.40318;0.0116768;0.00497921;-0.000398121
3.41316;0.00970205;0.00400173;-0.000398121
3.42314;0.00770064;0.00307318;-0.000398121
3.43312;0.00577421;0.00204334;-0.000398121
3.4431;0.00372844;0.00103377;-0.000404504
3.45308;0.00171619;9.23629e-05;-0.000398121
3.46306;-0.000126321;-0.000840652;-0.000402111
3.47304;-0.00204284;-0.00185121;-0.000398121
3.48302;-0.00399093;-0.00279509;-0.000398121
3.493;-0.00602589;-0.00377008;-0.000391739
3.50298;-0.00805389;-0.00474458;-0.000400515
3.51296;-0.00999807;-0.00570974;-0.000398121
3.52294;-0.0120863;-0.00669954;-0.000396526
3.53292;-0.0139417;-0.00767006;-0.000398121
3.5429;-0.015947;-0.008655;-0.000398121
3.55288;-0.0177984;-0.00957365;-0.000403706
3.56286;-0.0196538;-0.0105254;-0.000398121
3.57284;-0.0215603;-0.0114975;-0.000395728
3.58282;-0.0234492;-0.0124704;-0.000398121
3.5928;-0.0253836;-0.0134524;-0.000398919
3.60278;-0.0274145;-0.0144462;-0.000398121
3.61276;-0.029336;-0.0154571;-0.000390143
3.62274;-0.0312447;-0.0163981;-0.000397324
3.63272;-0.033327;-0.0173811;-0.000396526
3.6427;-0.0352098;-0.0183669;-0.000398121
3.65268;-0.0371747;-0.0193336;-0.000398121
3.66266;-0.039115;-0.0203253;-0.000398121
3.67264;-0.0410492;-0.0213017;-0.000396526
3.68262;-0.0430932;-0.0222486;-0.000398121
3.6926;-0.0450326;-0.0232435;-0.000401313
3.70258;-0.0469695;-0.0241898;-0.000405302
3.71256;-0.0485181;-0.0249856;-0.000404504
3.72254;-0.0471333;-0.0243103;-0.000398121
3.73252;-0.0451753;-0.0233452;-0.000398121
3.7425;-0.043265;-0.0223884;-0.000402908
3.75248;-0.041225;-0.021399;-0.000393334
3.76246;-0.0392917;-0.0204443;-0.000398919
3.77244;-0.0372577;-0.0194926;-0.000398121
3.78242;-0.0352918;-0.0184568;-0.000400515
3.7924;-0.0334246;-0.0175006;-0.000398121
3.80238;-0.0314429;-0.0165072;-0.000398121
3.81236;-0.0294959;-0.0155442;-0.000398121
3.82234;-0.0274916;-0.0145312;-0.000398121
3.83232;-0.02565;-0.0135694;-0.000401313
3.8423;-0.023688;-0.0125916;-0.000398121
3.85228;-0.0217874;-0.0116274;-0.000398121
3.86226;-0.0197851;-0.0106691;-0.000398121
3.87224;-0.0179128;-0.00969615;-0.00041727
3.88222;-0.0160051;-0.00870682;-0.000399717
3.8922;-0.0140985;-0.00773828;-0.000390941
3.90218;-0.0122107;-0.00678791;-0.000379771
3.91216;-0.0101422;-0.00582431;-0.000398919
3.92214;-0.00817632;-0.00479398;-0.000398121
3.93212;-0.00618973;-0.00387332;-0.000392537
3.9421;-0.00418831;-0.00292155;-0.000386154
3.95208;-0.00220272;-0.00192579;-0.000397324
3.96206;-0.000290143;-0.000979935;-0.000398121
3.97204;0.00154841;-1.48175e-06;-0.000398121
3.98202;0.00354092;0.000938943;-0.000398121
3.992;0.00558572;0.00196926;-0.000398121
4.00198;0.00749929;0.00293833;-0.000398121
4.01196;0.00950957;0.00390345;-0.000398121
4.02194;0.0115119;0.00486807;-0.000398121
4.03192;0.0134206;0.00584952;-0.000398919
4.0419;0.0153381;0.00680919;-0.000395728
4.05188;0.0172407;0.00778859;-0.000394132
4.06186;0.019105;0.00877405;-0.000398121
4.07184;0.0211261;0.00971833;-0.000398121
4.08182;0.0229815;0.0106978;-0.000398121
4.0918;0.0248693;0.0116423;-0.000402111
4.10178;0.0268254;0.0126453;-0.000398919
4.11176;0.0287853;0.0135749;-0.000398121
4.12174;0.0307719;0.014588;-0.000398121
4.13172;0.0328532;0.0155781;-0.000392537
4.1417;0.0347943;0.0164984;-0.000397324
4.15168;0.0367525;0.0174834;-0.000398121
4.16166;0.0387151;0.018474;-0.000394132
4.17164;0.0406288;0.019416;-0.000397324
4.18162;0.0425721;0.0203663;-0.00039493
4.1916;0.0445429;0.0213545;-0.000398121
4.20158;0.0463893;0.0223098;-0.000398121
4.21156;0.0480126;0.0231037;-0.000398121
4.22154;0.0469151;0.0225815;-0.000398121
4.23152;0.0450153;0.0216025;-0.000391739
4.2415;0.043115;0.0206562;-0.000398121
4.25148;0.0411519;0.0196927;-0.000398121
4.26146;0.0392186;0.0187126;-0.000398121
4.27144;0.0372517;0.0177382;-0.000398121
4.28142;0.0352898;0.0167547;-0.00039493
4.2914;0.0332983;0.015796;-0.000397324
4.30138;0.0313501;0.0148734;-0.000398121
4.31136;0.0293794;0.0138959;-0.000392537
4.32134;0.0273801;0.012924;-0.000398121
4.33132;0.0254062;0.0118902;-0.000402111
4.3413;0.0235232;0.010961;-0.000398121
4.35128;0.021668;0.00999748;-0.000402908
4.36126;0.0196607;0.00906051;-0.000398121
4.37124;0.0177589;0.0080731;-0.000398121
4.38122;0.0159302;0.00710108;-0.000396526
4.3912;0.0139495;0.00612709;-0.000398121
4.40118;0.0120587;0.00513384;-0.000398121
4.41116;0.0101294;0.0041499;-0.000391739
4.42114;0.00802828;0.00321937;-0.000398121
4.43112;0.00608807;0.00223301;-0.000386952
4.4411;0.00411529;0.00119578;-0.000398121
4.45108;0.00209022;0.000263259;-0.000398121
4.46106;0.000269418;-0.000688525;-0.000393334
4.47104;-0.00172803;-0.00166401;-0.000398121
4.48102;-0.00365145;-0.00263308;-0.000398121
4.491;-0.00564888;-0.0036066;-0.000398121
4.50098;-0.00765127;-0.00455937;-0.000398121
4.51096;-0.00962799;-0.00550524;-0.000398121
4.52094;-0.0116066;-0.00650789;-0.000398121
4.53092;-0.0135874;-0.00749525;-0.000396526
4.5409;-0.0155572;-0.00846581;-0.000396526
4.55088;-0.0174667;-0.00942055;-0.000391739
4.56086;-0.0192689;-0.0103841;-0.000397324
4.57084;-0.0212307;-0.0113597;-0.000396526
4.58082;-0.0231374;-0.0122883;-0.000398121
4.5908;-0.0249888;-0.0132519;-0.000398121
4.60078;-0.0269645;-0.0142536;-0.000388547
4.61076;-0.0289601;-0.0152408;-0.000397324
4.62074;-0.0308588;-0.0162228;-0.000398121
4.63072;-0.0328394;-0.0171796;-0.000393334
4.6407;-0.0347953;-0.0181867;-0.000397324
4.65068;-0.0367506;-0.0191493;-0.000393334
4.66066;-0.0387428;-0.0201741;-0.000398121
4.67064;-0.0406663;-0.0211169;-0.000394132
4.68062;-0.0426965;-0.0220787;-0.000392537
4.6906;-0.0446613;-0.0230573;-0.000394132
4.70058;-0.0465818;-0.0240382;-0.000398121
4.71056;-0.048455;-0.0249465;-0.000398121
4.72054;-0.0474818;-0.0244985;-0.000398121
