t;vds;corrente;vg
0;-0.00197104;0.0174067;0
2e-05;-0.00177532;0.0155738;0.225712
4e-05;-0.00179706;0.0143114;0.38674
6e-05;-0.00191667;0.0144894;0.391382
8e-05;-0.00197499;0.0156749;0.391382
0.0001;-0.0019651;0.0163223;0.391382
0.00012;-0.00191074;0.0146917;0.391382
0.00014;-0.00135916;0.0185801;0.391382
0.00016;-0.000522907;0.0188391;0.391382
0.00018;-0.000494241;0.0206841;0.391382
0.0002;9.8857e-07;0.0184061;0.391382
0.00022;0.00178817;0.0294644;0.391382
0.00024;0.00363663;0.0398186;0.391382
0.00026;0.00556911;0.0527098;0.391382
0.00028;0.00740077;0.0566589;0.391382
0.0003;0.00932039;0.0628091;0.391382
0.00032;0.0111866;0.0697038;0.391382
0.00034;0.0131221;0.0839344;0.391382
0.00036;0.0151287;0.0921522;0.391382
0.00038;0.0170384;0.099229;0.391382
0.0004;0.018964;0.109082;0.391382
0.00042;0.0208461;0.113294;0.391382
0.00044;0.0227361;0.125918;0.391382
0.00046;0.0246755;0.130911;0.391382
0.00048;0.0265368;0.140083;0.391382
0.0005;0.0283071;0.150183;0.391382
0.00052;0.0302583;0.153201;0.391382
0.00054;0.0321483;0.164276;0.391382
0.00056;0.0339009;0.175852;0.391382
0.00058;0.0360023;0.185308;0.391382
0.0006;0.0378697;0.192437;0.391382
0.00062;0.0396123;0.197968;0.391382
0.00064;0.041629;0.205919;0.391382
0.00066;0.0434585;0.215982;0.391382
0.00068;0.0454139;0.220611;0.391382
0.0007;0.0461126;0.223605;0.391382
0.00072;0.0445043;0.214368;0.391382
0.00074;0.0427469;0.214513;0.391382
0.00076;0.0408025;0.20579;0.391382
0.00078;0.0388681;0.195933;0.391382
0.0008;0.0370185;0.187019;0.391382
0.00082;0.0347341;0.179121;0.391382
0.00084;0.0329598;0.175395;0.391382
0.00086;0.0312805;0.170029;0.391382
0.00088;0.0291512;0.157968;0.391382
0.0009;0.0273344;0.148649;0.391382
0.00092;0.0254267;0.144393;0.391382
0.00094;0.0235338;0.133614;0.391382
0.00096;0.0217624;0.12578;0.391382
0.00098;0.0197914;0.118376;0.391382
0.001;0.0178173;0.108305;0.391382
0.00102;0.0159313;0.0985897;0.391382
0.00104;0.0141817;0.0932607;0.391382
0.00106;0.0122433;0.0799367;0.391382
0.00108;0.0102021;0.0736732;0.391382
0.0011;0.00823801;0.0662322;0.391382
0.00112;0.00649235;0.049311;0.391382
0.00114;0.00462116;0.0466283;0.391382
0.00116;0.002746;0.0336239;0.391382
0.00118;0.000933127;0.0309008;0.391382
0.0012;-0.000880738;0.0136397;0.391382
0.00122;-0.00281322;0.00990913;0.391382
0.00124;-0.00474669;-0.00120577;0.391382
0.00126;-0.0068235;-0.00412308;0.391382
0.00128;-0.00857903;-0.0227194;0.391382
0.0013;-0.0105145;-0.0252928;0.391382
0.00132;-0.0123214;-0.0355823;0.391382
0.00134;-0.0142598;-0.0440388;0.391382
0.00136;-0.0160875;-0.0572173;0.391382
0.00138;-0.0179755;-0.0636346;0.391382
0.0014;-0.0200888;-0.0741223;0.391382
0.00142;-0.0219047;-0.086099;0.391382
0.00144;-0.0237462;-0.0970198;0.391382
0.00146;-0.0256293;-0.10531;0.391382
0.00148;-0.0274945;-0.117562;0.391382
0.0015;-0.0294676;-0.123288;0.391382
0.00152;-0.031319;-0.132618;0.391382
0.00154;-0.0333128;-0.140237;0.391382
0.00156;-0.0351138;-0.15206;0.391382
0.00158;-0.0369415;-0.163126;0.391382
0.0016;-0.038791;-0.17166;0.391382
0.00162;-0.0407136;-0.181618;0.391382
0.00164;-0.0426065;-0.190535;0.391382
0.00166;-0.0445487;-0.19605;0.391382
0.00168;-0.0463361;-0.205782;0.391382
0.0017;-0.0474343;-0.21139;0.391382
0.00172;-0.0456548;-0.20409;0.391382
0.00174;-0.0440784;-0.196346;0.391382
0.00176;-0.0421368;-0.185988;0.391382
0.00178;-0.0402025;-0.18063;0.391382
0.0018;-0.0381543;-0.171005;0.391382
0.00182;-0.0364354;-0.16394;0.391382
0.00184;-0.0345137;-0.150535;0.391382
0.00186;-0.0324725;-0.143757;0.391382
0.00188;-0.0305914;-0.133213;0.391382
0.0019;-0.0289238;-0.123174;0.391382
0.00192;-0.026859;-0.115911;0.391382
0.00194;-0.0250005;-0.100722;0.391382
0.00196;-0.0232628;-0.0953163;0.391382
0.00198;-0.021273;-0.0881221;0.391382
0.002;-0.0193939;-0.0744784;0.391382
0.00202;-0.0175435;-0.0657224;0.391382
0.00204;-0.0155172;-0.05377;0.391382
0.00206;-0.0136865;-0.047559;0.391382
0.00208;-0.0119527;-0.03451;0.391382
0.0021;-0.00989369;-0.025054;0.391382
0.00212;-0.0081105;-0.0182686;0.391382
0.00214;-0.00631443;-0.00648605;0.391382
0.00216;-0.00426036;0.000226587;0.391382
0.00218;-0.00238916;0.0100548;0.391382
0.0022;-0.000349923;0.0259199;0.391382
0.00222;0.00139673;0.031265;0.391382
0.00224;0.00325507;0.044585;0.391382
0.00226;0.00520634;0.0498654;0.391382
0.00228;0.00704887;0.0609802;0.391382
0.0023;0.00893588;0.0732322;0.391382
0.00232;0.0108426;0.0762425;0.391382
0.00234;0.0125784;0.0885592;0.391382
0.00236;0.0145593;0.10069;0.391382
0.00238;0.0166134;0.105149;0.391382
0.0024;0.0182315;0.116559;0.391382
0.00242;0.0202569;0.124267;0.391382
0.00244;0.0221251;0.13554;0.391382
0.00246;0.0239617;0.144304;0.391382
0.00248;0.0258873;0.154897;0.391382
0.0025;0.0277486;0.163333;0.391382
0.00252;0.0295328;0.171162;0.391382
0.00254;0.0314405;0.179603;0.391382
0.00256;0.0334383;0.188399;0.391382
0.00258;0.0352472;0.199494;0.391382
0.0026;0.0371352;0.209565;0.391382
0.00262;0.0390509;0.211867;0.391382
0.00264;0.0409696;0.219697;0.391382
0.00266;0.0429159;0.225021;0.391382
0.00268;0.0448602;0.231912;0.391382
0.0027;0.0461592;0.240004;0.391382
0.00272;0.0447089;0.233005;0.391382
0.00274;0.0426757;0.226822;0.391382
0.00276;0.0407876;0.220255;0.391382
0.00278;0.0390431;0.213546;0.391382
0.0028;0.0370512;0.206275;0.391382
0.00282;0.0349923;0.194954;0.391382
0.00284;0.0331398;0.188654;0.391382
0.00286;0.0312992;0.180748;0.391382
0.00288;0.0293411;0.17272;0.391382
0.0029;0.0276755;0.162382;0.391382
0.00292;0.0257618;0.155544;0.391382
0.00294;0.0236791;0.139909;0.391382
0.00296;0.0220381;0.137915;0.391382
0.00298;0.0200968;0.125137;0.391382
0.003;0.0181683;0.11876;0.391382
0.00302;0.0163939;0.107495;0.391382
0.00304;0.0145089;0.0978775;0.391382
0.00306;0.0123777;0.0883285;0.391382
0.00308;0.010643;0.0807176;0.391382
0.0031;0.00870457;0.0658843;0.391382
0.00312;0.00680274;0.0554976;0.391382
0.00314;0.00500568;0.0501323;0.391382
0.00316;0.00307319;0.0437475;0.391382
0.00318;0.00134928;0.0346961;0.391382
0.0032;-0.000433943;0.0180946;0.391382
0.00322;-0.00238027;0.00783747;0.391382
0.00324;-0.0045401;0.00120577;0.391382
0.00326;-0.00634705;-0.00646986;0.391382
0.00328;-0.00821133;-0.0167108;0.391382
0.0033;-0.00995104;-0.0284609;0.391382
0.00332;-0.0119982;-0.0430758;0.391382
0.00334;-0.0139514;-0.0499301;0.391382
0.00336;-0.0156822;-0.0557364;0.391382
0.00338;-0.0176196;-0.0674056;0.391382
0.0034;-0.0195807;-0.0777599;0.391382
0.00342;-0.0213719;-0.0866898;0.391382
0.00344;-0.0232866;-0.103498;0.391382
0.00346;-0.0252379;-0.108899;0.391382
0.00348;-0.0270804;-0.120285;0.391382
0.0035;-0.0289556;-0.12557;0.391382
0.00352;-0.0307843;-0.140549;0.391382
0.00354;-0.0327523;-0.146473;0.391382
0.00356;-0.0345771;-0.159525;0.391382
0.00358;-0.0364333;-0.168739;0.391382
0.0036;-0.038445;-0.176613;0.391382
0.00362;-0.0403625;-0.18833;0.391382
0.00364;-0.0420718;-0.195674;0.391382
0.00366;-0.0440327;-0.202545;0.391382
0.00368;-0.0457431;-0.21228;0.391382
0.0037;-0.0474145;-0.219968;0.391382
0.00372;-0.0461916;-0.2137;0.391382
0.00374;-0.0443116;-0.201683;0.391382
0.00376;-0.0423218;-0.19862;0.391382
0.00378;-0.040328;-0.190272;0.391382
0.0038;-0.03861;-0.175002;0.391382
0.00382;-0.0366043;-0.170418;0.391382
0.00384;-0.0348389;-0.159489;0.391382
0.00386;-0.032944;-0.150725;0.391382
0.00388;-0.0310659;-0.144502;0.391382
0.0039;-0.0291819;-0.134593;0.391382
0.00392;-0.0272197;-0.115992;0.391382
0.00394;-0.0254009;-0.108475;0.391382
0.00396;-0.0234299;-0.100617;0.391382
0.00398;-0.0215479;-0.0884418;0.391382
0.004;-0.0196935;-0.0785569;0.391382
0.00402;-0.0178164;-0.0676768;0.391382
0.00404;-0.0160015;-0.0565456;0.391382
0.00406;-0.0139751;-0.0495376;0.391382
0.00408;-0.0123738;-0.0394585;0.391382
0.0041;-0.0102476;-0.0270812;0.391382
0.00412;-0.00841988;-0.022776;0.391382
0.00414;-0.00649631;-0.00741668;0.391382
0.00416;-0.00455295;0.00129074;0.391382
0.00418;-0.00276676;0.0117663;0.391382
0.0042;-0.000753223;0.0185882;0.391382
0.00422;0.00110117;0.0308239;0.391382
0.00424;0.00289724;0.0392683;0.391382
0.00426;0.00473088;0.0503792;0.391382
0.00428;0.00676023;0.0631611;0.391382
0.0043;0.00846832;0.072957;0.391382
0.00432;0.0103642;0.0800782;0.391382
0.00434;0.0123402;0.0878672;0.391382
0.00436;0.0142193;0.0984927;0.391382
0.00438;0.016041;0.110866;0.391382
0.0044;0.018021;0.117696;0.391382
0.00442;0.0198743;0.12648;0.391382
0.00444;0.0218256;0.13764;0.391382
0.00446;0.0237314;0.144935;0.391382
0.00448;0.0255275;0.153824;0.391382
0.0045;0.0275044;0.162819;0.391382
0.00452;0.0291958;0.172259;0.391382
0.00454;0.0312379;0.181759;0.391382
0.00456;0.0329738;0.189892;0.391382
0.00458;0.034927;0.202626;0.391382
0.0046;0.0367606;0.20738;0.391382
0.00462;0.0388206;0.216577;0.391382
0.00464;0.0406047;0.22176;0.391382
0.00466;0.0425621;0.230391;0.391382
0.00468;0.0443461;0.23377;0.391382
0.0047;0.0460683;0.238531;0.391382
0.00472;0.0449867;0.236501;0.391382
0.00474;0.043177;0.232794;0.391382
0.00476;0.0411494;0.227534;0.391382
0.00478;0.039401;0.220284;0.391382
0.0048;0.0374604;0.209415;0.391382
0.00482;0.0356733;0.202245;0.391382
0.00484;0.0336776;0.19213;0.391382
0.00486;0.0317401;0.185162;0.391382
0.00488;0.0298837;0.175306;0.391382
0.0049;0.0279206;0.17075;0.391382
0.00492;0.0259536;0.159489;0.391382
0.00494;0.0242079;0.14572;0.391382
0.00496;0.0223475;0.141269;0.39143
0.00498;0.0206829;0.130239;0.391382
0.005;0.0186042;0.119367;0.391382
0.00502;0.0167004;0.112318;0.391382
0.00504;0.0148489;0.0999289;0.391382
0.00506;0.0129619;0.0869285;0.391382
0.00508;0.0110028;0.0797182;0.391382
0.0051;0.00896157;0.0711807;0.391382
0.00512;0.00714278;0.0648403;0.391382
0.00514;0.00542578;0.0489226;0.391382
0.00516;0.00357633;0.0443503;0.391382
0.00518;0.00162507;0.0322886;0.391382
0.0052;-0.000276775;0.0267777;0.391382
0.00522;-0.00198784;0.0111796;0.391382
0.00524;-0.0039569;0.00345951;0.391382
0.00526;-0.00583304;-0.00792245;0.391382
0.00528;-0.00773982;-0.0157195;0.391382
0.0053;-0.00964362;-0.0253292;0.391382
0.00532;-0.011578;-0.0369458;0.391382
0.00534;-0.0135343;-0.0450342;0.391382
0.00536;-0.0153016;-0.0582409;0.391382
0.00538;-0.0172391;-0.0656576;0.391382
0.0054;-0.0190134;-0.0787552;0.391382
0.00542;-0.0208135;-0.0924476;0.391382
0.00544;-0.0228448;-0.0999169;0.391382
0.00546;-0.0247131;-0.106318;0.391382
0.00548;-0.0264597;-0.120787;0.391382
0.0055;-0.028401;-0.128685;0.391382
0.00552;-0.0303809;-0.137466;0.391382
0.00554;-0.0321621;-0.149661;0.391382
0.00556;-0.0342478;-0.155839;0.391382
0.00558;-0.0359983;-0.168828;0.391382
0.0056;-0.0379695;-0.17989;0.391382
0.00562;-0.0397556;-0.187748;0.391382
0.00564;-0.041545;-0.198337;0.391382
0.00566;-0.0435257;-0.205102;0.391382
0.00568;-0.0454387;-0.211608;0.391382
0.0057;-0.0471476;-0.220834;0.391382
0.00572;-0.0463202;-0.21436;0.391382
0.00574;-0.0445339;-0.21056;0.391382
0.00576;-0.0425373;-0.204127;0.391382
0.00578;-0.0407708;-0.192352;0.391382
0.0058;-0.0388443;-0.182212;0.391382
0.00582;-0.0370136;-0.18004;0.391382
0.00584;-0.0350822;-0.165364;0.391382
0.00586;-0.0332436;-0.155022;0.391382
0.00588;-0.0313259;-0.145914;0.391382
0.0059;-0.0296702;-0.132679;0.391382
0.00592;-0.0277872;-0.1233;0.391382
0.00594;-0.0257341;-0.11384;0.391382
0.00596;-0.0238767;-0.105764;0.391382
0.00598;-0.0219957;-0.0934591;0.391382
0.006;-0.020079;-0.08548;0.391382
0.00602;-0.0181574;-0.0700316;0.391382
0.00604;-0.0163643;-0.0639907;0.391382
0.00606;-0.0145405;-0.0548462;0.391382
0.00608;-0.0126179;-0.0414897;0.391382
0.0061;-0.0106914;-0.0342875;0.391382
0.00612;-0.00870556;-0.0210847;0.391382
0.00614;-0.00689566;-0.00939527;0.391382
0.00616;-0.00502545;-0.00282829;0.391382
0.00618;-0.00298719;0.00975942;0.391382
0.0062;-0.0012277;0.0218454;0.391382
0.00622;0.000589135;0.0337412;0.391382
0.00624;0.00248109;0.0377753;0.391382
0.00626;0.00432857;0.0476237;0.391382
0.00628;0.006265;0.0570676;0.391382
0.0063;0.00813917;0.0673692;0.391382
0.00632;0.0099797;0.080321;0.391382
0.00634;0.0119398;0.086362;0.391382
0.00636;0.013729;0.0974972;0.391382
0.00638;0.0157257;0.106832;0.391382
0.0064;0.0176315;0.117874;0.391382
0.00642;0.0194009;0.124162;0.391382
0.00644;0.0214707;0.134564;0.391382
0.00646;0.0232629;0.149628;0.391382
0.00648;0.0251954;0.157118;0.391382
0.0065;0.0269233;0.170414;0.391382
0.00652;0.0287677;0.174517;0.391382
0.00654;0.0307893;0.186934;0.391382
0.00656;0.0326368;0.189613;0.391382
0.00658;0.0345543;0.200971;0.391382
0.0066;0.0365648;0.209051;0.391382
0.00662;0.0382967;0.218632;0.391382
0.00664;0.0401361;0.224495;0.391382
0.00666;0.0421528;0.232228;0.391382
0.00668;0.0441394;0.235198;0.391382
0.0067;0.0458933;0.240842;0.391382
0.00672;0.0454107;0.239539;0.391382
0.00674;0.0434004;0.236177;0.391382
0.00676;0.0418699;0.226086;0.391382
0.00678;0.039821;0.22136;0.391382
0.0068;0.0378271;0.211406;0.391382
0.00682;0.03604;0.205798;0.391382
0.00684;0.0339266;0.197628;0.391382
0.00686;0.0320456;0.190705;0.391382
0.00688;0.0301685;0.180869;0.391382
0.0069;0.0283803;0.173133;0.391382
0.00692;0.0263223;0.164749;0.391382
0.00694;0.0245469;0.154193;0.391382
0.00696;0.0226826;0.145165;0.391382
0.00698;0.0208974;0.131914;0.391382
0.007;0.0188631;0.127694;0.391382
0.00702;0.0171758;0.113702;0.391382
0.00704;0.0151662;0.104093;0.391382
0.00706;0.0133029;0.0950532;0.391382
0.00708;0.011324;0.086884;0.391382
0.0071;0.00952598;0.0721437;0.391382
0.00712;0.00755695;0.0643426;0.391382
0.00714;0.00587554;0.0529566;0.391382
0.00716;0.00378391;0.0427602;0.391382
0.00718;0.00211239;0.0343522;0.391382
0.0072;0.000179904;0.0271135;0.391382
0.00722;-0.00161222;0.0143235;0.391382
0.00724;-0.00364552;0.00556756;0.391382
0.00726;-0.00550684;-0.00568491;0.391382
0.00728;-0.00739781;-0.0147079;0.391382
0.0073;-0.00928876;-0.0305528;0.391382
0.00732;-0.0111807;-0.0354002;0.391382
0.00734;-0.0131053;-0.0433995;0.391382
0.00736;-0.0149725;-0.0558497;0.391382
0.00738;-0.0168002;-0.0660299;0.391382
0.0074;-0.0186981;-0.0776384;0.391382
0.00742;-0.0207966;-0.0830361;0.391382
0.00744;-0.0224208;-0.0928805;0.391398
0.00746;-0.0242533;-0.105238;0.391382
0.00748;-0.0261838;-0.115681;0.391382
0.0075;-0.0280451;-0.126185;0.391382
0.00752;-0.0301872;-0.137352;0.391382
0.00754;-0.0319368;-0.147751;0.391382
0.00756;-0.0337853;-0.160428;0.391382
0.00758;-0.0356307;-0.167691;0.391382
0.0076;-0.0375584;-0.178268;0.391382
0.00762;-0.0395046;-0.186647;0.391382
0.00764;-0.0411891;-0.1965;0.391382
0.00766;-0.0431996;-0.20352;0.391382
0.00768;-0.0449839;-0.212749;0.391382
0.0077;-0.0469924;-0.220287;0.391382
0.00772;-0.0468057;-0.219822;0.391382
0.00774;-0.0449689;-0.209063;0.391382
0.00776;-0.0430307;-0.208294;0.391382
0.00778;-0.0412196;-0.196961;0.391382
0.0078;-0.0393979;-0.187185;0.391382
0.00782;-0.0373942;-0.175144;0.391382
0.00784;-0.0354411;-0.166793;0.391382
0.00786;-0.0336143;-0.1583;0.391382
0.00788;-0.0316541;-0.14909;0.391382
0.0079;-0.0299846;-0.141439;0.391382
0.00792;-0.0280076;-0.129195;0.391382
0.00794;-0.0260791;-0.118008;0.391382
0.00796;-0.0242286;-0.109227;0.391382
0.00798;-0.022307;-0.0994191;0.391382
0.008;-0.0204961;-0.0847274;0.391382
0.00802;-0.0185093;-0.0785771;0.391382
0.00804;-0.0168951;-0.0673773;0.391382
0.00806;-0.0147728;-0.0533086;0.391382
0.00808;-0.012956;-0.0463896;0.391382
0.0081;-0.0109771;-0.0331464;0.391382
0.00812;-0.00918199;-0.0254222;0.391382
0.00814;-0.00712004;-0.015679;0.391382
0.00816;-0.00531705;-0.0020231;0.391382
0.00818;-0.00346957;0.00811667;0.391382
0.0082;-0.00155389;0.0170547;0.391382
0.00822;0.000393416;0.0246252;0.391382
0.00824;0.00216675;0.0385764;0.391382
0.00826;0.0039391;0.044233;0.391382
0.00828;0.00592694;0.0565456;0.391382
0.0083;0.00786437;0.0627161;0.391382
0.00832;0.00974245;0.0729974;0.391382
0.00834;0.0115118;0.0866412;0.391382
0.00836;0.0134315;0.0967527;0.391382
0.00838;0.0153778;0.108903;0.391382
0.0084;0.0172272;0.112727;0.391382
0.00842;0.0190253;0.128681;0.391382
0.00844;0.0209775;0.139663;0.391382
0.00846;0.022827;0.143009;0.391382
0.00848;0.0247318;0.15289;0.391382
0.0085;0.0265575;0.16339;0.391382
0.00852;0.028572;0.172906;0.391382
0.00854;0.0305104;0.180962;0.391382
0.00856;0.0321433;0.192826;0.391382
0.00858;0.0341372;0.201836;0.391382
0.0086;0.0361368;0.206874;0.391382
0.00862;0.0378835;0.219069;0.391382
0.00864;0.0398544;0.224641;0.391382
0.00866;0.041803;0.229873;0.391382
0.00868;0.043582;0.237884;0.391382
0.0087;0.0455474;0.241979;0.391382
0.00872;0.0457744;0.242396;0.391382
0.00874;0.0438738;0.236286;0.391382
0.00876;0.0419025;0.231839;0.391382
0.00878;0.0399999;0.225305;0.391382
0.0088;0.0381908;0.217977;0.391382
0.00882;0.0362881;0.207162;0.391382
0.00884;0.034318;0.202108;0.391382
0.00886;0.0324221;0.194675;0.391382
0.00888;0.0305539;0.186105;0.391382
0.0089;0.0287262;0.175714;0.391382
0.00892;0.0269162;0.163709;0.391382
0.00894;0.024882;0.154751;0.391382
0.00896;0.0231037;0.146832;0.391382
0.00898;0.021359;0.139234;0.391382
0.009;0.0193663;0.127573;0.391382
0.00902;0.0174279;0.11819;0.391382
0.00904;0.015615;0.109098;0.391382
0.00906;0.0137231;0.0939203;0.391382
0.00908;0.0117649;0.0905539;0.391382
0.0091;0.00986504;0.0752795;0.391382
0.00912;0.00799584;0.0702178;0.391382
0.00914;0.00624721;0.0551618;0.391382
0.00916;0.00421489;0.0483521;0.391382
0.00918;0.00226461;0.0392157;0.391382
0.0092;0.000539711;0.0278176;0.391382
0.00922;-0.00126032;0.015505;0.391382
0.00924;-0.00324914;0.00661148;0.391382
0.00926;-0.00496515;-0.00332598;0.391382
0.00928;-0.00695595;-0.0145177;0.391382
0.0093;-0.00896751;-0.0258673;0.391382
0.00932;-0.0107942;-0.0352181;0.391382
0.00934;-0.0126842;-0.042566;0.391382
0.00936;-0.0146097;-0.055874;0.391382
0.00938;-0.0164167;-0.0649132;0.391382
0.0094;-0.0183432;-0.0747697;0.391382
0.00942;-0.0202925;-0.0854598;0.391382
0.00944;-0.0222091;-0.0946608;0.391382
0.00946;-0.0240586;-0.106528;0.391382
0.00948;-0.0257103;-0.113973;0.391382
0.0095;-0.0277486;-0.128058;0.391382
0.00952;-0.0296326;-0.137227;0.391382
0.00954;-0.0314594;-0.14992;0.391382
0.00956;-0.0334136;-0.153395;0.391382
0.00958;-0.0353144;-0.16496;0.391382
0.0096;-0.037081;-0.180792;0.39143
0.00962;-0.0391241;-0.184013;0.391382
0.00964;-0.0407857;-0.195962;0.391382
0.00966;-0.0426846;-0.203714;0.391382
0.00968;-0.0445497;-0.213397;0.391382
0.0097;-0.0464112;-0.218349;0.391382
0.00972;-0.047047;-0.219899;0.391382
0.00974;-0.0451734;-0.212616;0.391382
0.00976;-0.0433786;-0.2074;0.391382
0.00978;-0.0414212;-0.201497;0.391382
0.0098;-0.0397212;-0.192279;0.391382
0.00982;-0.0376868;-0.179255;0.391382
0.00984;-0.0358345;-0.174063;0.391382
0.00986;-0.0340729;-0.159295;0.391382
0.00988;-0.0320693;-0.15401;0.391382
0.0099;-0.0304125;-0.138461;0.391382
0.00992;-0.0284149;-0.131651;0.391382
0.00994;-0.0263123;-0.117995;0.391382
0.00996;-0.0244352;-0.114313;0.391382
0.00998;-0.022819;-0.0991237;0.391382
0.01;-0.0208777;-0.0871834;0.391382
0.01002;-0.0188315;-0.0787067;0.391382
0.01004;-0.0170947;-0.06866;0.391382
0.01006;-0.0150773;-0.0586658;0.391382
0.01008;-0.013303;-0.0491613;0.391382
0.0101;-0.0114733;-0.0382487;0.391382
0.01012;-0.00931544;-0.0287603;0.391382
0.01014;-0.00771708;-0.0164356;0.391382
0.01016;-0.00570453;-0.00551497;0.391382
0.01018;-0.00402213;0.00705251;0.391382
0.0102;-0.00192754;0.0141091;0.391382
0.01022;-9.39053e-05;0.0223269;0.391382
0.01024;0.00162902;0.0300794;0.391382
0.01026;0.00354865;0.0401989;0.391382
0.01028;0.00552759;0.0544335;0.391382
0.0103;0.00735728;0.0653865;0.391382
0.01032;0.00927986;0.0767523;0.391382
0.01034;0.0111214;0.0848204;0.391382
0.01036;0.0130855;0.0922371;0.391382
0.01038;0.0149853;0.10593;0.391382
0.0104;0.0168892;0.113977;0.391382
0.01042;0.0184441;0.122924;0.391382
0.01044;0.0206276;0.135188;0.391382
0.01046;0.0223782;0.148293;0.391382
0.01048;0.0242138;0.154622;0.391382
0.0105;0.026163;0.163479;0.391382
0.01052;0.0280421;0.174925;0.391382
0.01054;0.0298709;0.181982;0.391382
0.01056;0.0318478;0.19198;0.391382
0.01058;0.0337961;0.202334;0.391382
0.0106;0.0356485;0.20672;0.391398
0.01062;0.0375465;0.213117;0.391382
0.01064;0.039464;0.221477;0.391382
0.01066;0.0412859;0.229614;0.391382
0.01068;0.0432252;0.234275;0.391382
0.0107;0.0451045;0.242481;0.391478
0.01072;0.0458999;0.243213;0.391382
0.01074;0.0441544;0.236893;0.391382
