t;vds;corrente;vg
0;-0.00143725;0.0242043;0.152481
2e-05;-0.00158355;0.0206113;0.381186
4e-05;-0.00176444;0.0176171;0.391382
6e-05;-0.00184352;0.0153796;0.391382
8e-05;-0.00187021;0.0159541;0.391382
0.0001;-0.00171502;0.0147807;0.391382
0.00012;-0.000472495;0.0189928;0.391382
0.00014;-0.000600997;0.0199558;0.391382
0.00016;-0.000223397;0.019098;0.391382
0.00018;0.00150843;0.0219546;0.391382
0.0002;0.00363663;0.019709;0.391382
0.00022;0.00554736;0.0200691;0.391382
0.00024;0.00750654;0.0205223;0.391382
0.00026;0.00955068;0.0291447;0.391382
0.00028;0.0113992;0.0273482;0.391382
0.0003;0.0135343;0.0314227;0.391382
0.00032;0.0154025;0.0305933;0.391382
0.00034;0.017333;0.0288129;0.391382
0.00036;0.0192318;0.0322725;0.391382
0.00038;0.0213917;0.0307066;0.391382
0.0004;0.0232263;0.0350279;0.391382
0.00042;0.0251449;0.0418781;0.391382
0.00044;0.0271812;0.039414;0.391382
0.00046;0.0290297;0.0439214;0.391382
0.00048;0.0310749;0.0432093;0.391382
0.0005;0.0329718;0.0466648;0.391382
0.00052;0.0350654;0.045374;0.391382
0.00054;0.037079;0.0459567;0.391382
0.00056;0.0390806;0.0515607;0.391382
0.00058;0.0409489;0.0548624;0.391382
0.0006;0.0429594;0.0550242;0.391382
0.00062;0.0447237;0.0590705;0.391382
0.00064;0.0468609;0.0536081;0.391382
0.00066;0.0482566;0.0558497;0.391382
0.00068;0.0465961;0.0619513;0.391382
0.0007;0.0447168;0.0538994;0.391382
0.00072;0.0427282;0.0560034;0.391382
0.00074;0.0407886;0.0522526;0.391382
0.00076;0.0387317;0.0507191;0.391382
0.00078;0.0368149;0.0481417;0.391382
0.0008;0.0347292;0.0479191;0.391382
0.00082;0.0328313;0.0420805;0.391382
0.00084;0.0307674;0.0470775;0.391382
0.00086;0.0288537;0.0429827;0.391382
0.00088;0.0269311;0.040377;0.391382
0.0009;0.0248681;0.0391591;0.391382
0.00092;0.0228447;0.0393614;0.391382
0.00094;0.0211139;0.029954;0.391382
0.00096;0.0191271;0.031617;0.391382
0.00098;0.0171036;0.0349429;0.391382
0.001;0.0151188;0.0266118;0.391382
0.00102;0.0131626;0.0274818;0.391382
0.00104;0.0112212;0.0239373;0.391382
0.00106;0.00916321;0.025228;0.391382
0.00108;0.0071833;0.0239332;0.391382
0.0011;0.00518657;0.0180096;0.391382
0.00112;0.00331241;0.0186246;0.391382
0.00114;0.00144714;0.0194703;0.391382
0.00116;-0.000616813;0.0154565;0.391382
0.00118;-0.00255622;0.0142183;0.391382
0.0012;-0.00454504;0.0147767;0.391382
0.00122;-0.00650916;0.00993745;0.391382
0.00124;-0.00851182;0.0112322;0.391382
0.00126;-0.0104364;0.00666004;0.391382
0.00128;-0.0123649;0.00881261;0.391382
0.0013;-0.0143853;0.00615022;0.391382
0.00132;-0.0162684;0.00474619;0.391382
0.00134;-0.0183857;0.00624328;0.391382
0.00136;-0.0202915;0.00149305;0.391382
0.00138;-0.0224099;0.00305893;0.391382
0.0014;-0.0240556;0.000878025;0.391382
0.00142;-0.0263202;0.000323696;0.391382
0.00144;-0.0281727;-0.00567277;0.391382
0.00146;-0.0301862;-0.00260575;0.391382
0.00148;-0.03218;-0.00532884;0.391382
0.0015;-0.0341875;-0.0061664;0.391382
0.00152;-0.0360784;-0.00764731;0.391382
0.00154;-0.0380397;-0.00609357;0.391382
0.00156;-0.03998;-0.0089947;0.391382
0.00158;-0.041967;-0.0100872;0.391382
0.0016;-0.0438973;-0.0132958;0.391382
0.00162;-0.0459674;-0.0118432;0.391382
0.00164;-0.0476674;-0.0155819;0.391382
0.00166;-0.0492944;-0.0140524;0.391382
0.00168;-0.0479848;-0.017346;0.391382
0.0017;-0.0459523;-0.0191992;0.391382
0.00172;-0.0440902;-0.0211859;0.391382
0.00174;-0.0421567;-0.0138096;0.391382
0.00176;-0.0402894;-0.0127698;0.391382
0.00178;-0.0381751;-0.0145015;0.391382
0.0018;-0.0362772;-0.00559185;0.391382
0.00182;-0.0343457;-0.00816927;0.391382
0.00184;-0.032264;-0.00892186;0.391382
0.00186;-0.0303711;-0.00381152;0.391382
0.00188;-0.0284445;-0.00292136;0.391382
0.0019;-0.0263262;0.00347164;0.391382
0.00192;-0.0243552;-0.00201096;0.391382
0.00194;-0.0226283;0.00265835;0.391382
0.00196;-0.0205248;0.00367395;0.391382
0.00198;-0.0185301;0.00835944;0.391382
0.002;-0.0165916;0.00999814;0.391382
0.00202;-0.0146315;0.00941145;0.391382
0.00204;-0.0127276;0.00989699;0.391382
0.00206;-0.0105916;0.00988889;0.391382
0.00208;-0.00873818;0.0100346;0.391382
0.0021;-0.00675134;0.0122316;0.391382
0.00212;-0.00465378;0.0133241;0.391382
0.00214;-0.00256116;0.0142467;0.391382
0.00216;-0.000712695;0.0151247;0.391382
0.00218;0.00130183;0.0167998;0.391382
0.0022;0.0032353;0.0212263;0.391382
0.00222;0.00529036;0.0211616;0.391382
0.00224;0.00700538;0.0221529;0.391382
0.00226;0.00910491;0.0254182;0.391382
0.00228;0.0110868;0.0207893;0.391382
0.0023;0.0130608;0.0272835;0.391382
0.00232;0.0150575;0.0293511;0.391382
0.00234;0.0169336;0.0334944;0.391382
0.00236;0.0188819;0.0357522;0.391382
0.00238;0.0208945;0.0335632;0.391382
0.0024;0.0228062;0.0368973;0.391382
0.00242;0.0247259;0.0413399;0.391382
0.00244;0.0267888;0.039414;0.391382
0.00246;0.0286502;0.0381071;0.391382
0.00248;0.0307714;0.0419267;0.391382
0.0025;0.0325379;0.0425579;0.391382
0.00252;0.034499;0.042566;0.391382
0.00254;0.0365599;0.0488538;0.391382
0.00256;0.0385903;0.0499058;0.391382
0.00258;0.0404811;0.0533208;0.391382
0.0026;0.0425403;0.0548988;0.391382
0.00262;0.044435;0.0538994;0.391382
0.00264;0.0463538;0.0596653;0.391382
0.00266;0.0480529;0.0596248;0.391382
0.00268;0.0469471;0.0570919;0.391382
0.0027;0.0448097;0.0614456;0.391382
0.00272;0.0431277;0.0549676;0.391382
0.00274;0.0408943;0.0536202;0.391382
0.00276;0.0390214;0.0505168;0.391382
0.00278;0.0371659;0.0468631;0.391382
0.0028;0.035102;0.046681;0.391382
0.00282;0.0330795;0.0448036;0.391382
0.00284;0.0313388;0.0434399;0.391382
0.00286;0.0293114;0.0414128;0.391382
0.00288;0.0274145;0.038799;0.391382
0.0029;0.0252605;0.0357077;0.391382
0.00292;0.02333;0.0334297;0.391382
0.00294;0.0215261;0.0342308;0.391382
0.00296;0.0194137;0.033369;0.391382
0.00298;0.0174971;0.0321106;0.391382
0.003;0.0155883;0.0315968;0.391382
0.00302;0.0136875;0.0276517;0.391382
0.00304;0.0115959;0.0270124;0.391382
0.00306;0.0095685;0.0274089;0.391382
0.00308;0.00770127;0.0272552;0.391382
0.0031;0.0056818;0.0189564;0.391382
0.00312;0.00369989;0.021287;0.391382
0.00314;0.0018198;0.0202957;0.391382
0.00316;-0.000141353;0.0173865;0.391382
0.00318;-0.00217367;0.0173986;0.391382
0.0032;-0.00417832;0.0121507;0.391382
0.00322;-0.00614737;0.0160432;0.391382
0.00324;-0.00804526;0.0126403;0.391382
0.00326;-0.0101418;0.0122235;0.391382
0.00328;-0.0119893;0.00769991;0.391382
0.0033;-0.0141531;0.00956924;0.391382
0.00332;-0.0160124;0.00849296;0.391382
0.00334;-0.0180012;0.00587104;0.391382
0.00336;-0.0199277;0.00199882;0.391382
0.00338;-0.02196;0.00108843;0.391382
0.0034;-0.0238885;0.00122195;0.391382
0.00342;-0.0258329;0.00237512;0.391382
0.00344;-0.0279571;-0.00209998;0.391382
0.00346;-0.0296553;-0.00547451;0.391382
0.00348;-0.0318755;-0.00796696;0.391382
0.0035;-0.0337783;-0.00640917;0.391382
0.00352;-0.0356762;-0.00767158;0.391382
0.00354;-0.037758;-0.0115074;0.391382
0.00356;-0.0395965;-0.01139;0.391382
0.00358;-0.0416201;-0.0142952;0.391382
0.0036;-0.0435267;-0.0120779;0.391382
0.00362;-0.0455385;-0.0170547;0.391382
0.00364;-0.0473847;-0.0168686;0.391382
0.00366;-0.0491789;-0.0197373;0.391382
0.00368;-0.0482566;-0.0184345;0.391382
0.0037;-0.0465635;-0.0148495;0.391382
0.00372;-0.0445003;-0.0128912;0.391382
0.00374;-0.0424117;-0.0151489;0.391382
0.00376;-0.0404693;-0.0118108;0.391382
0.00378;-0.038601;-0.010601;0.391382
0.0038;-0.0367348;-0.00619877;0.391382
0.00382;-0.0346481;-0.0101195;0.391382
0.00384;-0.0327266;-0.00736407;0.391382
0.00386;-0.0306705;-0.00324101;0.391382
0.00388;-0.0286352;-0.000311557;0.391382
0.0039;-0.026766;-0.00142022;0.391382
0.00392;-0.0247485;0.00340286;0.391382
0.00394;-0.0228595;0.00199073;0.391382
0.00396;-0.0210131;0.00225373;0.391382
0.00398;-0.018703;0.000517914;0.391382
0.004;-0.0167715;0.00532479;0.391382
0.00402;-0.0150427;0.00589935;0.391382
0.00404;-0.0129768;0.00876;0.391382
0.00406;-0.010984;0.0106091;0.391382
0.00408;-0.00883999;0.00963803;0.391382
0.0041;-0.00707457;0.0129154;0.391382
0.00412;-0.00505708;0.0121143;0.391382
0.00414;-0.0030129;0.0126524;0.391382
0.00416;-0.00118717;0.0148091;0.391382
0.00418;0.000871842;0.0140039;0.391382
0.0042;0.00281125;0.0165125;0.391382
0.00422;0.00491968;0.0220072;0.391382
0.00424;0.00671575;0.0245078;0.391382
0.00426;0.00856322;0.025572;0.391382
0.00428;0.0105115;0.0268344;0.391382
0.0043;0.0125814;0.0289829;0.391382
0.00432;0.0145475;0.0304759;0.391382
0.00434;0.0165412;0.0321511;0.391382
0.00436;0.0186605;0.0335834;0.391382
0.00438;0.0205762;0.031269;0.391382
0.0044;0.0225295;0.0315077;0.391382
0.00442;0.0242801;0.0422827;0.391382
0.00444;0.0263627;0.038099;0.391382
0.00446;0.0282626;0.0435654;0.391382
0.00448;0.0302672;0.0442532;0.391382
0.0045;0.032171;0.0459931;0.391382
0.00452;0.0340897;0.0488417;0.391382
0.00454;0.0361635;0.0476156;0.391382
0.00456;0.0380911;0.0522728;0.391382
0.00458;0.0401193;0.052026;0.391382
0.0046;0.0421676;0.0546318;0.391382
0.00462;0.0440761;0.0589895;0.391382
0.00464;0.0461305;0.0602965;0.391382
0.00466;0.0480558;0.0635698;0.391382
0.00468;0.0473919;0.0621375;0.391382
0.0047;0.0454532;0.0586577;0.391382
0.00472;0.0433934;0.0597259;0.391382
0.00474;0.0415359;0.0551052;0.391382
0.00476;0.0395581;0.0553803;0.391382
0.00478;0.0376798;0.049578;0.391382
0.0048;0.0355468;0.0478342;0.391382
0.00482;0.0336212;0.0427845;0.391382
0.00484;0.0317955;0.0408787;0.391382
0.00486;0.0296178;0.0436625;0.391382
0.00488;0.0277269;0.0422868;0.391382
0.0049;0.0258567;0.0387747;0.391382
0.00492;0.0237928;0.0371724;0.391382
0.00494;0.0218642;0.0358129;0.391382
0.00496;0.019827;0.0321025;0.391382
0.00498;0.0179102;0.0333204;0.391382
0.005;0.0159837;0.0320418;0.391382
0.00502;0.0139356;0.0288048;0.391382
0.00504;0.0120426;0.0237916;0.391382
0.00506;0.00996684;0.028202;0.391382
0.00508;0.00815003;0.0235043;0.391382
0.0051;0.0061108;0.0231564;0.391382
0.00512;0.0041022;0.0202876;0.391382
0.00514;0.00217862;0.0177587;0.391382
0.00516;0.000354865;0.0182402;0.391382
0.00518;-0.00176148;0.0200165;0.391382
0.0052;-0.00378984;0.0163223;0.391382
0.00522;-0.00564325;0.0107345;0.391382
0.00524;-0.00772005;0.0125189;0.391382
0.00526;-0.00947656;0.0134495;0.391382
0.00528;-0.0115168;0.0123571;0.391382
0.0053;-0.0135778;0.00788198;0.391382
0.00532;-0.0153946;0.00864266;0.391382
0.00534;-0.0175208;0.00682188;0.391382
0.00536;-0.019477;0.000772824;0.391382
0.00538;-0.021442;0.00441845;0.391382
0.0054;-0.0235465;0.00148496;0.391382
0.00542;-0.0253742;-0.000558376;0.391382
0.00544;-0.027369;-0.00269477;0.391382
0.00546;-0.029344;-0.0010156;0.391382
0.00548;-0.0313042;-0.00459648;0.391382
0.0055;-0.0332703;-0.0077525;0.391382
0.00552;-0.0352641;-0.00578201;0.391382
0.00554;-0.0372876;-0.0114345;0.391382
0.00556;-0.0392614;-0.00724269;0.391382
0.00558;-0.0411842;-0.0119282;0.391382
0.0056;-0.0430177;-0.0125513;0.391382
0.00562;-0.0451579;-0.0154039;0.391382
0.00564;-0.0469628;-0.018487;0.391382
0.00566;-0.0488705;-0.0152906;0.391382
0.00568;-0.0485867;-0.0166137;0.391382
0.0057;-0.0467623;-0.0170506;0.391382
0.00572;-0.0448009;-0.0134617;0.391382
0.00574;-0.0428172;-0.0123126;0.391382
0.00576;-0.040839;-0.0110987;0.391382
0.00578;-0.0389641;-0.00789816;0.391382
0.0058;-0.0371045;-0.00702824;0.391382
0.00582;-0.035102;-0.00927792;0.391382
0.00584;-0.0330824;-0.00450747;0.391382
0.00586;-0.0310411;-0.00396528;0.391382
0.00588;-0.0290741;-0.00647391;0.391382
0.0059;-0.0272415;0.00252888;0.391382
0.00592;-0.0251647;0.000793055;0.391382
0.00594;-0.0232401;-0.000837564;0.391382
0.00596;-0.021363;0.00582652;0.391382
0.00598;-0.0193277;0.00407453;0.391382
0.006;-0.0172302;0.00672072;0.391382
0.00602;-0.0152503;0.00367395;0.391382
0.00604;-0.0133791;0.0113293;0.391382
0.00606;-0.0113606;0.00671669;0.391382
0.00608;-0.00924921;0.00910797;0.391382
0.0061;-0.00748282;0.0131137;0.391382
0.00612;-0.0054416;0.0168362;0.391382
0.00614;-0.00353185;0.0140443;0.391382
0.00616;-0.00146493;0.0178316;0.391382
0.00618;0.000456679;0.0203442;0.391382
0.0062;0.00234369;0.0198182;0.391382
0.00622;0.00437008;0.0213032;0.391382
0.00624;0.00639845;0.023565;0.391382
0.00626;0.00824394;0.0219951;0.391382
0.00628;0.0101932;0.0274049;0.391382
0.0063;0.0122255;0.0281656;0.391382
0.00632;0.0144298;0.0250257;0.391382
0.00634;0.0161557;0.0298731;0.391382
0.00636;0.0180131;0.0338505;0.391382
0.00638;0.0199989;0.0359666;0.391382
0.0064;0.0221686;0.0377632;0.391382
0.00642;0.0240022;0.0370591;0.391382
0.00644;0.0260711;0.0388516;0.391382
0.00646;0.0278355;0.0391551;0.391382
0.00648;0.0297996;0.0410729;0.391382
0.0065;0.0319447;0.0441723;0.391382
0.00652;0.0336943;0.0501567;0.391382
0.00654;0.0358254;0.0483156;0.391382
0.00656;0.0378193;0.05483;0.391382
0.00658;0.0396063;0.048526;0.391382
0.0066;0.0418366;0.0509821;0.391382
0.00662;0.0438025;0.0555462;0.391382
0.00664;0.045491;0.0617288;0.391382
0.00666;0.0475409;0.0627727;0.391382
0.00668;0.0477872;0.0624288;0.391382
0.0067;0.0458347;0.0580387;0.391382
0.00672;0.0438412;0.0611542;0.391382
0.00674;0.0419846;0.0577676;0.391382
0.00676;0.0399366;0.0530861;0.391382
0.00678;0.037917;0.0508283;0.391382
0.0068;0.036044;0.049659;0.391382
0.00682;0.0338446;0.0473931;0.391382
0.00684;0.0320456;0.0470572;0.391382
0.00686;0.0300054;0.0432215;0.391382
0.00688;0.0279137;0.0420926;0.391382
0.0069;0.026003;0.0368406;0.391382
0.00692;0.0239707;0.0362782;0.391382
0.00694;0.0221805;0.0339354;0.391382
0.00696;0.0202619;0.0352585;0.391382
0.00698;0.0183205;0.0316857;0.391382
0.007;0.0163435;0.0290922;0.391382
0.00702;0.0142707;0.0311759;0.391382
0.00704;0.0124459;0.0264095;0.391382
0.00706;0.0105036;0.0269841;0.391382
0.00708;0.00845843;0.0233506;0.391382
0.0071;0.0064795;0.0227275;0.391382
0.00712;0.00449562;0.0215581;0.391382
0.00714;0.00257005;0.0217362;0.391382
0.00716;0.00068403;0.0194784;0.391382
0.00718;-0.00124153;0.0155778;0.391382
0.0072;-0.00332822;0.0129155;0.391382
0.00722;-0.00532693;0.0118837;0.391382
0.00724;-0.00743537;0.0167472;0.391382
0.00726;-0.00928283;0.0102085;0.391382
0.00728;-0.0111797;0.00750164;0.391382
0.0073;-0.0134008;0.00638085;0.391382
0.00732;-0.0152344;0.00876;0.391382
0.00734;-0.0172855;0.00741263;0.391382
0.00736;-0.0192309;0.00405834;0.391382
0.00738;-0.0210892;0.0020231;0.391382
0.0074;-0.0231245;0.00338262;0.391382
0.00742;-0.0250827;5.26004e-05;0.391382
0.00744;-0.0269924;0.000481498;0.391382
0.00746;-0.0289348;-0.00247628;0.391382
0.00748;-0.0308614;-0.00307511;0.391382
0.0075;-0.0329303;-0.00565254;0.391382
0.00752;-0.0349468;-0.0087155;0.391382
0.00754;-0.0368249;-0.00852127;0.391382
0.00756;-0.0388918;-0.0117501;0.391382
0.00758;-0.040665;-0.00896231;0.391382
0.0076;-0.0427123;-0.0124097;0.391382
0.00762;-0.0445141;-0.0148091;0.391382
0.00764;-0.0467582;-0.0135304;0.391382
0.00766;-0.0485659;-0.0184061;0.391382
0.00768;-0.0491471;-0.0181391;0.391382
0.0077;-0.0471389;-0.0174634;0.391382
0.00772;-0.0453297;-0.0150478;0.391382
0.00774;-0.0432976;-0.0117056;0.391382
0.00776;-0.0413936;-0.0123004;0.391382
0.00778;-0.0393555;-0.0104028;0.391382
0.0078;-0.0373596;-0.00869122;0.391382
0.00782;-0.0355192;-0.00795887;0.391382
0.00784;-0.0335134;-0.00829875;0.391382
0.00786;-0.0314653;-0.00440227;0.391382
0.00788;-0.0295516;-0.00426874;0.391382
0.0079;-0.02754;-0.00621496;0.391382
0.00792;-0.0256115;-0.00371441;0.391382
0.00794;-0.0236731;-0.00025491;0.391382
0.00796;-0.0217732;0.00271095;0.391382
0.00798;-0.0195046;0.0011208;0.391382
0.008;-0.0176542;0.00316008;0.391382
0.00802;-0.0155982;0.00396123;0.391382
0.00804;-0.0138249;0.00758661;0.391382
0.00806;-0.0118449;0.00879237;0.391382
0.00808;-0.00978299;0.010338;0.391382
0.0081;-0.00779814;0.0138299;0.391382
0.00812;-0.00587554;0.0111958;0.391382
0.00814;-0.00384124;0.0183576;0.391382
0.00816;-0.0018712;0.0177344;0.391382
0.00818;0.000202639;0.0189483;0.391382
0.0082;0.00202145;0.0193125;0.391382
0.00822;0.00408441;0.022424;0.391382
0.00824;0.00590421;0.0210159;0.391382
0.00826;0.00786042;0.0230269;0.391382
0.00828;0.00982055;0.0250985;0.391382
0.0083;0.011924;0.0263124;0.391382
0.00832;0.0139712;0.0295939;0.391382
0.00834;0.0157514;0.0338222;0.391382
0.00836;0.0177531;0.0345707;0.391382
0.00838;0.019732;0.0336482;0.391382
0.0084;0.0217297;0.0337534;0.391382
0.00842;0.0236405;0.0391267;0.391382
0.00844;0.02557;0.0407776;0.391382
0.00846;0.0274669;0.0393533;0.391382
0.00848;0.0294566;0.0432943;0.391382
0.0085;0.0313714;0.0430151;0.391382
0.00852;0.0334462;0.0459729;0.391382
0.00854;0.0352403;0.0503711;0.391382
0.00856;0.0374516;0.0516942;0.391382
0.00858;0.0393919;0.0520382;0.391382
0.0086;0.0414105;0.0543243;0.391382
0.00862;0.0432114;0.0583098;0.391382
0.00864;0.0451035;0.0582248;0.391382
0.00866;0.0472009;0.0626554;0.391382
0.00868;0.0480619;0.0515566;0.391382
0.0087;0.0461471;0.063323;0.391382
0.00872;0.0441267;0.058682;0.391382
0.00874;0.0422475;0.0566063;0.391382
0.00876;0.0402914;0.0510711;0.391382
0.00878;0.038431;0.054393;0.391382
0.0088;0.0363592;0.0502659;0.391382
0.00882;0.034397;0.0466081;0.391382
0.00884;0.0323104;0.0498128;0.391382
0.00886;0.0303582;0.0425214;0.391382
0.00888;0.028404;0.0369539;0.391382
0.0089;0.0264853;0.0399279;0.391382
0.00892;0.0246814;0.0396244;0.391382
0.00894;0.0226905;0.0362782;0.391382
0.00896;0.0207175;0.030654;0.391382
0.00898;0.0185923;0.0320823;0.391382
0.009;0.0167982;0.035214;0.391382
0.00902;0.0147857;0.0269558;0.391382
0.00904;0.0127801;0.026887;0.391382
0.00906;0.0107685;0.0257095;0.391382
0.00908;0.00884494;0.0220639;0.391382
0.0091;0.00698561;0.0212061;0.391382
0.00912;0.0049523;0.0223552;0.391382
0.00914;0.00298522;0.0163102;0.391382
0.00916;0.00109524;0.0172125;0.391382
0.00918;-0.00105867;0.0185235;0.391382
0.0092;-0.00285375;0.0196726;0.391382
0.00922;-0.00476251;0.0120415;0.391382
0.00924;-0.00688973;0.0122114;0.391382
0.00926;-0.00884394;0.0115316;0.391382
0.00928;-0.0107952;0.00980797;0.391382
0.0093;-0.0128028;0.00459244;0.391382
0.00932;-0.0147531;0.0134981;0.391382
0.00934;-0.0167557;0.00267454;0.391382
0.00936;-0.0186249;0.00392481;0.391382
0.00938;-0.0206592;0.00198264;0.391382
0.0094;-0.0226273;0.00161848;0.391382
0.00942;-0.0247061;0.00256529;0.391382
0.00944;-0.0265061;-0.00256934;0.391382
0.00946;-0.028663;-0.00247628;0.391382
0.00948;-0.0305105;-0.00572132;0.391382
0.0095;-0.0325131;-0.00994149;0.391398
0.00952;-0.0344901;-0.0066398;0.391382
0.00954;-0.0364748;-0.0121224;0.391382
0.00956;-0.0383955;-0.0103016;0.391382
0.00958;-0.0404564;-0.0101559;0.391382
0.0096;-0.0422289;-0.00912011;0.391382
0.00962;-0.0442966;-0.0144854;0.391382
0.00964;-0.0461344;-0.0151651;0.391382
0.00966;-0.0481052;-0.0181998;0.391382
0.00968;-0.049247;-0.0165449;0.391382
0.0097;-0.047552;-0.0134738;0.391382
0.00972;-0.0454156;-0.0167877;0.391382
0.00974;-0.0435753;-0.0139472;0.391382
0.00976;-0.0418117;-0.0115357;0.391382
0.00978;-0.0397884;-0.0118756;0.391382
0.0098;-0.0376472;-0.0101317;0.391382
0.00982;-0.0358018;-0.00914034;0.391382
0.00984;-0.0338881;-0.00774441;0.391382
0.00986;-0.0319981;-0.00419996;0.391382
0.00988;-0.0299065;-0.00166299;0.391382
0.0099;-0.0278841;-0.00170345;0.391382
0.00992;-0.0258458;-0.00231847;0.391382
0.00994;-0.0240122;0.0011734;0.391382
0.00996;-0.0219354;0.0064901;0.391382
0.00998;-0.0200652;-0.00037225;0.391382
0.01;-0.0179933;0.00157802;0.391382
0.01002;-0.0161093;0.00518318;0.391382
0.01004;-0.0143062;0.00832707;0.391382
0.01006;-0.0123333;0.0096704;0.391382
0.01008;-0.00994805;0.00870741;0.391382
0.0101;-0.00830423;0.0100103;0.391382
0.01012;-0.0062571;0.0122842;0.391382
0.01014;-0.0041536;0.0115762;0.391382
0.01016;-0.00229723;0.0174714;0.391382
0.01018;-0.000302475;0.0184587;0.391382
0.0102;0.00171106;0.0178842;0.391382
0.01022;0.00357831;0.0210847;0.391382
0.01024;0.00559086;0.0252199;0.391382
0.01026;0.00730884;0.0230552;0.391382
0.01028;0.00945976;0.0257095;0.391382
0.0103;0.011329;0.0268708;0.391382
0.01032;0.0133138;0.02925;0.391382
0.01034;0.0154312;0.0271216;0.391382
0.01036;0.0172648;0.0344129;0.391382
0.01038;0.0192378;0.0333528;0.391382
0.0104;0.0213185;0.0367111;0.391382
0.01042;0.0232816;0.0380262;0.391382
0.01044;0.0251686;0.0375972;0.391382
0.01046;0.0270646;0.0418013;0.391382
0.01048;0.0290357;0.04047;0.391382
0.0105;0.0310423;0.0456087;0.391382
0.01052;0.0330114;0.0448844;0.391382
0.01054;0.034755;0.0468509;0.391382
