t;vds;corrente;vg
0;-0.00169129;0.0167431;-0.399964
2e-05;-0.00184846;0.0170992;-0.399308
4e-05;-0.000908415;0.019794;-0.39934
6e-05;-0.000358819;0.0225252;-0.399372
8e-05;-0.000312361;0.0262072;-0.399372
0.0001;0.000431967;0.0268546;-0.399372
0.00012;0.0022231;0.0371684;-0.399372
0.00014;0.00408837;0.0478382;-0.398876
0.00016;0.00594572;0.0580144;-0.399212
0.00018;0.00789007;0.0672842;-0.399196
0.0002;0.00980374;0.0765298;-0.39926
0.00022;0.0117056;0.084788;-0.399372
0.00024;0.0134917;0.0985007;-0.39934
0.00026;0.0155537;0.103834;-0.399372
0.00028;0.0173449;0.114398;-0.399372
0.0003;0.0193159;0.122928;-0.399196
0.00032;0.021105;0.133775;-0.399099
0.00034;0.0229842;0.143272;-0.399372
0.00036;0.0248149;0.156086;-0.399276
0.00038;0.0267374;0.163863;-0.399372
0.0004;0.0285118;0.168221;-0.39926
0.00042;0.0305006;0.182625;-0.399212
0.00044;0.0322512;0.191499;-0.399372
0.00046;0.0341736;0.200497;-0.3991
0.00048;0.0362633;0.21033;-0.399372
0.0005;0.0381613;0.215335;-0.399196
0.00052;0.0400481;0.22265;-0.399372
0.00054;0.0419166;0.228003;-0.399372
0.00056;0.0437046;0.234708;-0.399372
0.00058;0.0456541;0.243039;-0.399372
0.0006;0.0460768;0.239652;-0.399372
0.00062;0.0441564;0.237415;-0.399372
0.00064;0.0423207;0.229197;-0.399372
0.00066;0.0403972;0.226203;-0.399372
0.00068;0.0386258;0.218054;-0.39926
0.0007;0.0366429;0.213712;-0.399372
0.00072;0.0346926;0.202084;-0.399372
0.00074;0.0327512;0.195229;-0.39934
0.00076;0.0309384;0.186667;-0.399356
0.00078;0.029084;0.173675;-0.399244
0.0008;0.027195;0.167011;-0.399372
0.00082;0.025401;0.155164;-0.399004
0.00084;0.023509;0.147067;-0.399148
0.00086;0.0215538;0.13314;-0.399084
0.00088;0.0197192;0.126189;-0.399356
0.0009;0.0178825;0.115175;-0.399228
0.00092;0.0159442;0.104582;-0.39926
0.00094;0.0139514;0.0976955;-0.399372
0.00096;0.012011;0.0847557;-0.39934
0.00098;0.0100617;0.0812112;-0.399372
0.001;0.00828051;0.0661473;-0.399372
0.00102;0.00646171;0.0556716;-0.399372
0.00104;0.00460831;0.0538589;-0.399324
0.00106;0.00262838;0.0388151;-0.399324
0.00108;0.00085998;0.028032;-0.399372
0.0011;-0.00104779;0.0247991;-0.399372
0.00112;-0.0029012;0.0133929;-0.399324
0.00114;-0.00483072;0.00394505;-0.399372
0.00116;-0.00676913;-0.00948023;-0.399372
0.00118;-0.00865811;-0.0179206;-0.399372
0.0012;-0.0106094;-0.027939;-0.399308
0.00122;-0.0124736;-0.0407088;-0.399372
0.00124;-0.0144427;-0.0462845;-0.399372
0.00126;-0.0162526;-0.0577473;-0.399372
0.00128;-0.0180526;-0.066742;-0.399372
0.0013;-0.0199228;-0.0752431;-0.399372
0.00132;-0.0219689;-0.0848811;-0.399356
0.00134;-0.023846;-0.0980961;-0.399372
0.00136;-0.0256243;-0.105047;-0.399372
0.00138;-0.0275736;-0.11441;-0.399372
0.0014;-0.0294913;-0.126905;-0.399372
0.00142;-0.0311727;-0.126974;-0.397962
0.00144;-0.03347;-0.146687;-0.397226
0.00146;-0.0347322;-0.150737;-0.397723
0.00148;-0.0370394;-0.167225;-0.399148
0.0015;-0.0386427;-0.171357;-0.399324
0.00152;-0.0408609;-0.180958;-0.399372
0.00154;-0.0425748;-0.186607;-0.399244
0.00156;-0.044614;-0.20407;-0.399324
0.00158;-0.0463014;-0.210034;-0.399372
0.0016;-0.047131;-0.209731;-0.399372
0.00162;-0.0453711;-0.204357;-0.399372
0.00164;-0.0434794;-0.19372;-0.399372
0.00166;-0.04152;-0.185025;-0.399372
0.00168;-0.0397103;-0.176115;-0.399372
0.0017;-0.0379062;-0.166845;-0.399372
0.00172;-0.0359639;-0.156434;-0.399372
0.00174;-0.034145;-0.148196;-0.399372
0.00176;-0.0322146;-0.138849;-0.399372
0.00178;-0.0303305;-0.128928;-0.399372
0.0018;-0.0284218;-0.119193;-0.399372
0.00182;-0.026431;-0.1072;-0.399372
0.00184;-0.0247199;-0.0990874;-0.399276
0.00186;-0.0227488;-0.0902707;-0.399372
0.00188;-0.0207788;-0.0815916;-0.399372
0.0019;-0.0189739;-0.0697038;-0.399228
0.00192;-0.0170058;-0.0601387;-0.399372
0.00194;-0.0152275;-0.0480526;-0.399324
0.00196;-0.0132842;-0.0407816;-0.399084
0.00198;-0.0112192;-0.0286713;-0.399372
0.002;-0.00939847;-0.022165;-0.399356
0.00202;-0.00749369;-0.0134131;-0.399372
0.00204;-0.00560173;-0.00195836;-0.399372
0.00206;-0.00363761;0.00415545;-0.399372
0.00208;-0.0018455;0.0174877;-0.399372
0.0021;3.95397e-06;0.0263933;-0.399372
0.00212;0.00175159;0.0358695;-0.399372
0.00214;0.00379083;0.0468469;-0.399372
0.00216;0.00573913;0.0544821;-0.399372
0.00218;0.00745415;0.0672923;-0.39926
0.0022;0.00937969;0.073483;-0.399372
0.00222;0.0112825;0.085051;-0.399292
0.00224;0.0131665;0.0900886;-0.399068
0.00226;0.0150951;0.100544;-0.399372
0.00228;0.0169742;0.114483;-0.398827
0.0023;0.0187436;0.121095;-0.399372
0.00232;0.0208115;0.130858;-0.399372
0.00234;0.0227973;0.140658;-0.399372
0.00236;0.0244441;0.15066;-0.399212
0.00238;0.0264013;0.160375;-0.398507
0.0024;0.0282685;0.172105;-0.399324
0.00242;0.0300923;0.178838;-0.399372
0.00244;0.0319417;0.192106;-0.399244
0.00246;0.0339928;0.199198;-0.399164
0.00248;0.0358382;0.211333;-0.39926
0.0025;0.0376681;0.217936;-0.399276
0.00252;0.0395065;0.221355;-0.399292
0.00254;0.0414026;0.231151;-0.399372
0.00256;0.0433458;0.238556;-0.39934
0.00258;0.0451727;0.239199;-0.39918
0.0026;0.0463431;0.244504;-0.399084
0.00262;0.0444499;0.238483;-0.398972
0.00264;0.0427341;0.236597;-0.399036
0.00266;0.0408084;0.230367;-0.399164
0.00268;0.0388988;0.221987;-0.399292
0.0027;0.0370017;0.205628;-0.399372
0.00272;0.0349992;0.206842;-0.399324
0.00274;0.033296;0.191041;-0.399372
0.00276;0.031414;0.185907;-0.399244
0.00278;0.0293845;0.17601;-0.399356
0.0028;0.0276172;0.160654;-0.3991
0.00282;0.0255334;0.15331;-0.399324
0.00284;0.0237323;0.157446;-0.398427
0.00286;0.0221153;0.137077;-0.398107
0.00288;0.0201828;0.131785;-0.397386
0.0029;0.0179735;0.120298;-0.39825
0.00292;0.0160667;0.109612;-0.399372
0.00294;0.0144041;0.104;-0.397851
0.00296;0.0128324;0.0902788;-0.397483
0.00298;0.0105115;0.0848973;-0.397145
0.003;0.00826964;0.0715085;-0.397322
0.00302;0.00688379;0.0611057;-0.398043
0.00304;0.00483665;0.0521312;-0.397163
0.00306;0.00327089;0.046596;-0.397323
0.00308;0.00128404;0.0274413;-0.39777
0.0031;-0.000695892;0.0243176;-0.399132
0.00312;-0.00259477;0.0131178;-0.399116
0.00314;-0.00433647;0.00199478;-0.399308
0.00316;-0.00629268;-0.00715367;-0.399356
0.00318;-0.00822912;-0.017172;-0.399372
0.0032;-0.0102071;-0.0257459;-0.399356
0.00322;-0.0120347;-0.0330453;-0.399308
0.00324;-0.013813;-0.0465677;-0.39934
0.00326;-0.0158572;-0.0546803;-0.399372
0.00328;-0.0178638;-0.0627727;-0.399372
0.0033;-0.0196569;-0.0761535;-0.399372
0.00332;-0.0216121;-0.0844158;-0.399372
0.00334;-0.0234072;-0.0937262;-0.399196
0.00336;-0.025312;-0.104372;-0.399372
0.00338;-0.0271595;-0.116013;-0.399372
0.0034;-0.0291088;-0.121479;-0.39934
0.00342;-0.0310492;-0.131133;-0.399372
0.00344;-0.0327821;-0.142523;-0.399372
0.00346;-0.0346908;-0.15183;-0.399372
0.00348;-0.0366074;-0.161715;-0.399372
0.0035;-0.038537;-0.17325;-0.39934
0.00352;-0.0403298;-0.180651;-0.399244
0.00354;-0.0421597;-0.186344;-0.3991
0.00356;-0.0441206;-0.19601;-0.399212
0.00358;-0.0460742;-0.2039;-0.399292
0.0036;-0.0471684;-0.214566;-0.399372
0.00362;-0.0456785;-0.206761;-0.399148
0.00364;-0.043772;-0.195577;-0.399116
0.00366;-0.0418867;-0.189075;-0.399164
0.00368;-0.0401867;-0.179316;-0.399372
0.0037;-0.0382897;-0.168812;-0.399372
0.00372;-0.036204;-0.158894;-0.399372
0.00374;-0.034487;-0.15202;-0.399372
0.00376;-0.0324528;-0.141083;-0.399372
0.00378;-0.0307674;-0.133359;-0.399372
0.0038;-0.0288824;-0.121366;-0.399372
0.00382;-0.026763;-0.112096;-0.399372
0.00384;-0.0250223;-0.101641;-0.399372
0.00386;-0.0231917;-0.0931595;-0.399372
0.00388;-0.0210407;-0.0833921;-0.399372
0.0039;-0.0192604;-0.0740455;-0.39934
0.00392;-0.0174407;-0.0597543;-0.399372
0.00394;-0.0155685;-0.0541907;-0.399372
0.00396;-0.0137616;-0.0415868;-0.399372
0.00398;-0.011758;-0.0336724;-0.399372
0.004;-0.0100271;-0.0244552;-0.399372
0.00402;-0.00796519;-0.0167431;-0.399372
0.00404;-0.00602085;-0.00674096;-0.399372
0.00406;-0.00422675;0.00178033;-0.399372
0.00408;-0.00216577;0.0151449;-0.399276
0.0041;-0.000345968;0.0271702;-0.399324
0.00412;0.00155291;0.0349713;-0.399372
0.00414;0.00343695;0.0441359;-0.399116
0.00416;0.00535461;0.0508931;-0.399372
0.00418;0.00714179;0.0598271;-0.399372
0.0042;0.00882121;0.072346;-0.39926
0.00422;0.0108654;0.0852736;-0.399372
0.00424;0.0127929;0.0912539;-0.399372
0.00426;0.0147264;0.101034;-0.399356
0.00428;0.0165758;0.11212;-0.399372
0.0043;0.0182928;0.121673;-0.399324
0.00432;0.020424;0.13208;-0.399308
0.00434;0.0222388;0.139359;-0.399276
0.00436;0.0240299;0.151494;-0.399372
0.00438;0.0260355;0.160128;-0.399372
0.0044;0.0277634;0.171259;-0.399372
0.00442;0.0296109;0.177899;-0.399372
0.00444;0.0314554;0.186635;-0.399372
0.00446;0.0332772;0.196916;-0.399372
0.00448;0.0352571;0.205725;-0.399356
0.0045;0.0371976;0.211018;-0.39934
0.00452;0.0390944;0.214526;-0.398379
0.00454;0.0409616;0.225588;-0.396986
0.00456;0.0431253;0.228015;-0.397947
0.00458;0.0447108;0.239769;-0.399356
0.0046;0.0462817;0.246304;-0.399132
0.00462;0.0447455;0.241465;-0.399356
0.00464;0.0431591;0.234125;-0.399132
0.00466;0.0412009;0.229792;-0.39918
0.00468;0.0391815;0.223225;-0.399324
0.0047;0.0373853;0.212086;-0.398683
0.00472;0.0355063;0.208424;-0.399372
0.00474;0.0335085;0.199623;-0.399372
0.00476;0.0316018;0.190329;-0.399372
0.00478;0.029783;0.175245;-0.399372
0.0048;0.027809;0.172291;-0.399372
0.00482;0.0260801;0.160412;-0.399292
0.00484;0.0241387;0.148977;-0.399372
0.00486;0.0222645;0.141625;-0.399372
0.00488;0.020425;0.126747;-0.399372
0.0049;0.0185271;0.119966;-0.399372
0.00492;0.0165264;0.110838;-0.399372
0.00494;0.0147036;0.104821;-0.399148
0.00496;0.0129075;0.0925931;-0.399292
0.00498;0.0109019;0.0835499;-0.399308
0.005;0.00896256;0.072694;-0.399372
0.00502;0.00713586;0.0652652;-0.399372
0.00504;0.00536746;0.0572011;-0.399372
0.00506;0.00345079;0.0432538;-0.399356
0.00508;0.00154203;0.0340083;-0.398796
0.0051;-0.000265902;0.0253009;-0.399116
0.00512;-0.00219839;0.0125553;-0.399324
0.00514;-0.00403894;0.00435776;-0.399372
0.00516;-0.00594671;-0.00250864;-0.399068
0.00518;-0.00789304;-0.0137449;-0.399228
0.0052;-0.00980375;-0.0229095;-0.399372
0.00522;-0.0115435;-0.0352181;-0.399308
0.00524;-0.0136123;-0.0444192;-0.399372
0.00526;-0.0155992;-0.0538185;-0.399372
0.00528;-0.0173765;-0.0630843;-0.39934
0.0053;-0.0191073;-0.0749842;-0.398683
0.00532;-0.0212434;-0.0798639;-0.399003
0.00534;-0.0231235;-0.0961619;-0.39926
0.00536;-0.0248405;-0.106626;-0.399324
0.00538;-0.0268699;-0.112335;-0.399372
0.0054;-0.0286461;-0.123077;-0.399372
0.00542;-0.0305816;-0.133221;-0.399372
0.00544;-0.0325151;-0.143066;-0.399372
0.00546;-0.0343655;-0.153375;-0.399372
0.00548;-0.0361921;-0.158716;-0.399372
0.0055;-0.0381059;-0.166222;-0.399244
0.00552;-0.0400027;-0.181391;-0.399372
0.00554;-0.0418573;-0.185971;-0.399372
0.00556;-0.0438459;-0.196908;-0.399372
0.00558;-0.0455651;-0.203605;-0.399372
0.0056;-0.0470745;-0.211467;-0.399372
0.00562;-0.0461293;-0.207942;-0.399372
0.00564;-0.0443105;-0.198939;-0.399324
0.00566;-0.0423336;-0.191535;-0.399308
0.00568;-0.0405375;-0.179749;-0.399372
0.0057;-0.038687;-0.173449;-0.399372
0.00572;-0.0367645;-0.16381;-0.399372
0.00574;-0.0348577;-0.154577;-0.399372
0.00576;-0.0329006;-0.141844;-0.399372
0.00578;-0.0309779;-0.132048;-0.399372
0.0058;-0.029167;-0.125461;-0.399372
0.00582;-0.0272879;-0.112193;-0.399372
0.00584;-0.0253367;-0.109138;-0.399372
0.00586;-0.0233933;-0.0942278;-0.399308
0.00588;-0.0214984;-0.0827812;-0.399372
0.0059;-0.0197211;-0.0754616;-0.399356
0.00592;-0.0177541;-0.0625947;-0.399372
0.00594;-0.0159956;-0.0555341;-0.399372
0.00596;-0.0139791;-0.0460902;-0.399372
0.00598;-0.0120614;-0.0351008;-0.399276
0.006;-0.0101092;-0.0260575;-0.399324
0.00602;-0.00838035;-0.0142992;-0.399372
0.00604;-0.00651904;-0.00793865;-0.399308
0.00606;-0.00450748;0.00547046;-0.399372
0.00608;-0.00267681;0.0084687;-0.397482
0.0061;-0.000692925;0.0238604;-0.397275
0.00612;0.00117036;0.0303384;-0.398139
0.00614;0.00293283;0.0420036;-0.39934
0.00616;0.00500963;0.0507434;-0.399372
0.00618;0.00659417;0.0587063;-0.399148
0.0062;0.00855828;0.0703229;-0.399356
0.00622;0.0104967;0.0790749;-0.399372
0.00624;0.0123372;0.0868799;-0.398972
0.00626;0.01433;0.09774;-0.399228
0.00628;0.0162615;0.11195;-0.399356
0.0063;0.0179814;0.11679;-0.399372
0.00632;0.0200414;0.128507;-0.399372
0.00634;0.0219363;0.141026;-0.39934
0.00636;0.023845;0.149038;-0.399148
0.00638;0.0254069;0.157102;-0.399372
0.0064;0.0274254;0.169609;-0.399372
0.00642;0.02926;0.178907;-0.399324
0.00644;0.0311559;0.18706;-0.399372
0.00646;0.0330242;0.196856;-0.399372
0.00648;0.0348746;0.21086;-0.399372
0.0065;0.036897;0.215092;-0.399324
0.00652;0.0387515;0.222484;-0.399356
0.00654;0.0407006;0.229088;-0.399164
0.00656;0.0426619;0.235841;-0.399244
0.00658;0.0444914;0.23894;-0.399324
0.0066;0.0461602;0.244322;-0.399324
0.00662;0.0452061;0.241687;-0.399372
0.00664;0.0434291;0.237925;-0.399372
0.00666;0.041437;0.231183;-0.399068
0.00668;0.0396471;0.224115;-0.399324
0.0067;0.0378123;0.216969;-0.398796
0.00672;0.0358819;0.207623;-0.399084
0.00674;0.0338544;0.199174;-0.399324
0.00676;0.0319181;0.19425;-0.399212
0.00678;0.0300874;0.186437;-0.39926
0.0068;0.0282488;0.169807;-0.39934
0.00682;0.0263282;0.164875;-0.399372
0.00684;0.0245578;0.153529;-0.399372
0.00686;0.0225442;0.145109;-0.399372
0.00688;0.0207264;0.133735;-0.399372
0.0069;0.0189867;0.12139;-0.399372
0.00692;0.016986;0.113484;-0.399308
0.00694;0.0152601;0.105553;-0.39934
0.00696;0.0132021;0.0973152;-0.3991
0.00698;0.0112341;0.0845049;-0.399356
0.007;0.00943701;0.0739159;-0.398923
0.00702;0.00742449;0.0648646;-0.399292
0.00704;0.00568378;0.0569462;-0.39934
0.00706;0.00389166;0.0458636;-0.399052
0.00708;0.00171304;0.0282425;-0.398427
0.0071;-0.000174961;0.026713;-0.399004
0.00712;-0.00165472;0.0204252;-0.397323
0.00714;-0.00337073;0.00768777;-0.397691
0.00716;-0.0055533;-0.00422019;-0.396536
0.00718;-0.00786239;-0.016642;-0.397305
0.0072;-0.00957343;-0.0236015;-0.397787
0.00722;-0.0110947;-0.0294846;-0.397179
0.00724;-0.0129273;-0.0422747;-0.397323
0.00726;-0.0151939;-0.048;-0.398378
0.00728;-0.0172727;-0.0636386;-0.399308
0.0073;-0.0188622;-0.0726697;-0.399212
0.00732;-0.0207363;-0.0796048;-0.399308
0.00734;-0.022564;-0.0937342;-0.399372
0.00736;-0.0247267;-0.102296;-0.398619
0.00738;-0.0267918;-0.107075;-0.399372
0.0074;-0.0282181;-0.12103;-0.399212
0.00742;-0.0301951;-0.130413;-0.399276
0.00744;-0.0321097;-0.14114;-0.399308
0.00746;-0.0341134;-0.14835;-0.399292
0.00748;-0.035943;-0.160452;-0.399196
0.0075;-0.0376947;-0.168018;-0.399324
0.00752;-0.0395698;-0.179453;-0.399324
0.00754;-0.0415025;-0.186291;-0.399324
0.00756;-0.0433992;-0.197438;-0.399276
0.00758;-0.0454169;-0.204705;-0.399276
0.0076;-0.0469262;-0.212652;-0.399356
0.00762;-0.0464487;-0.205952;-0.398891
0.00764;-0.0447465;-0.199781;-0.397178
0.00766;-0.042472;-0.192611;-0.397482
0.00768;-0.0411049;-0.181824;-0.399004
0.0077;-0.0388353;-0.170596;-0.399372
0.00772;-0.0372251;-0.1671;-0.399372
0.00774;-0.0349388;-0.151979;-0.399372
0.00776;-0.033375;-0.143774;-0.399324
0.00778;-0.0314347;-0.135151;-0.399372
0.0078;-0.0295566;-0.129915;-0.399276
0.00782;-0.027633;-0.11721;-0.399372
0.00784;-0.0257598;-0.110336;-0.399372
0.00786;-0.02377;-0.097841;-0.399372
0.00788;-0.0220945;-0.0872077;-0.399292
0.0079;-0.0200197;-0.0825384;-0.399372
0.00792;-0.0182691;-0.0721518;-0.399372
0.00794;-0.0162249;-0.0604259;-0.399244
0.00796;-0.0144842;-0.0517266;-0.399372
0.00798;-0.0125349;-0.0367597;-0.399372
0.008;-0.0105481;-0.0269314;-0.399372
0.00802;-0.00868776;-0.0200489;-0.399228
0.00804;-0.00681954;-0.0102005;-0.399308
0.00806;-0.0048663;0.00156183;-0.399372
0.00808;-0.00312756;0.00847273;-0.399372
0.0081;-0.00111797;0.0190535;-0.399372
0.00812;0.000795728;0.030658;-0.399372
0.00814;0.00256017;0.0391915;-0.399276
0.00816;0.00455493;0.0494445;-0.399372
0.00818;0.00631146;0.0615265;-0.399372
0.0082;0.00804032;0.0703432;-0.399372
0.00822;0.0101062;0.0807621;-0.399372
0.00824;0.0119873;0.090121;-0.399292
0.00826;0.0139119;0.0971412;-0.399292
0.00828;0.0158957;0.105869;-0.399372
0.0083;0.0176365;0.121309;-0.399372
0.00832;0.0195333;0.131032;-0.399372
0.00834;0.0214361;0.13611;-0.399372
0.00836;0.0230998;0.15134;-0.399196
0.00838;0.0251914;0.156895;-0.39926
0.0084;0.027031;0.164316;-0.399356
0.00842;0.0287806;0.1762;-0.399372
0.00844;0.0307408;0.184422;-0.399372
0.00846;0.032617;0.19652;-0.399276
0.00848;0.0344416;0.205385;-0.39926
0.0085;0.0364748;0.211155;-0.399372
0.00852;0.0383491;0.220502;-0.399372
0.00854;0.040312;0.228728;-0.399372
0.00856;0.0422546;0.23334;-0.399372
0.00858;0.0441433;0.2389;-0.399372
0.0086;0.0459635;0.245551;-0.399372
0.00862;0.0455402;0.243209;-0.39926
0.00864;0.0437937;0.239357;-0.399067
0.00866;0.0418432;0.234963;-0.399372
0.00868;0.0399218;0.222132;-0.399372
0.0087;0.0382155;0.219442;-0.399292
0.00872;0.0363177;0.20899;-0.39918
0.00874;0.0340966;0.198401;-0.399372
0.00876;0.0322818;0.193748;-0.399372
0.00878;0.0304136;0.188395;-0.399372
0.0088;0.0287757;0.176483;-0.398796
0.00882;0.0266592;0.164114;-0.399308
0.00884;0.0248573;0.156596;-0.398363
0.00886;0.0229633;0.145105;-0.399372
0.00888;0.0212216;0.133646;-0.399244
0.0089;0.0192882;0.128212;-0.399244
0.00892;0.0173824;0.115952;-0.399356
0.00894;0.0154806;0.105246;-0.399372
0.00896;0.0135886;0.0954133;-0.399372
0.00898;0.0116809;0.0889475;-0.399372
0.009;0.00986008;0.074976;-0.399324
0.00902;0.00783867;0.0656415;-0.399084
0.00904;0.006008;0.0591271;-0.39934
0.00906;0.00419215;0.0460174;-0.399276
0.00908;0.0023427;0.0393007;-0.399372
0.0091;0.000560469;0.0264378;-0.399372
0.00912;-0.00150843;0.0185801;-0.399372
0.00914;-0.00347254;0.0106658;-0.399276
0.00916;-0.00513714;-0.00144045;-0.399276
0.00918;-0.0069609;-0.00794674;-0.398122
0.0092;-0.00913851;-0.0238321;-0.396906
0.00922;-0.0107181;-0.0280644;-0.396954
0.00924;-0.0128987;-0.0430839;-0.399019
0.00926;-0.0145257;-0.0467335;-0.399292
0.00928;-0.0167616;-0.0602114;-0.399356
0.0093;-0.0184934;-0.0680975;-0.399324
0.00932;-0.0202955;-0.0793055;-0.399372
0.00934;-0.0222161;-0.0878429;-0.399372
0.00936;-0.0241881;-0.0997389;-0.399324
0.00938;-0.0260424;-0.109567;-0.399372
0.0094;-0.028062;-0.119958;-0.399372
0.00942;-0.0299114;-0.130138;-0.399372
0.00944;-0.0316313;-0.133213;-0.399372
0.00946;-0.0336103;-0.149414;-0.399372
0.00948;-0.0354211;-0.154816;-0.399372
0.0095;-0.0373252;-0.169127;-0.399372
0.00952;-0.0394087;-0.172761;-0.399372
0.00954;-0.041117;-0.185138;-0.399372
0.00956;-0.0430088;-0.193651;-0.399372
0.00958;-0.0449759;-0.203524;-0.399372
0.0096;-0.0466129;-0.212976;-0.399356
0.00962;-0.0467514;-0.209844;-0.399372
0.00964;-0.045052;-0.197754;-0.399372
0.00966;-0.0430139;-0.195893;-0.399372
0.00968;-0.0411939;-0.184944;-0.399308
0.0097;-0.0394474;-0.173388;-0.399372
0.00972;-0.0374397;-0.166214;-0.399372
0.00974;-0.035528;-0.156264;-0.399372
0.00976;-0.0337616;-0.149422;-0.399372
0.00978;-0.0316591;-0.133953;-0.399372
0.0098;-0.0299619;-0.124672;-0.399228
0.00982;-0.027977;-0.114945;-0.399356
0.00984;-0.0260781;-0.106783;-0.399324
0.00986;-0.0241545;-0.0973637;-0.399372
0.00988;-0.0223476;-0.0893239;-0.399372
0.0099;-0.0204625;-0.0810939;-0.399372
0.00992;-0.0185982;-0.067709;-0.399356
0.00994;-0.0166766;-0.0561369;-0.399372
0.00996;-0.0148489;-0.0486717;-0.399356
0.00998;-0.0128858;-0.038451;-0.399372
0.01;-0.0109721;-0.0323089;-0.399356
0.01002;-0.00923735;-0.0195512;-0.399372
0.01004;-0.0073039;-0.0115397;-0.399356
0.01006;-0.00528047;-0.00286876;-0.399356
0.01008;-0.00332229;0.00995768;-0.399372
0.0101;-0.00152523;0.0189483;-0.399372
0.01012;0.00033213;0.0307632;-0.399324
0.01014;0.00223694;0.040729;-0.399372
0.01016;0.00409528;0.0467983;-0.399372
0.01018;0.00590421;0.0587832;-0.399164
0.0102;0.00780111;0.0686478;-0.399372
0.01022;0.00978002;0.0754656;-0.399276
0.01024;0.0116196;0.0885025;-0.399372
0.01026;0.0135857;0.0957533;-0.399292
0.01028;0.015534;0.108491;-0.39934
0.0103;0.0173933;0.119755;-0.399372
0.01032;0.0191122;0.124793;-0.39934
0.01034;0.0211416;0.138174;-0.399292
0.01036;0.0230148;0.148621;-0.399068
0.01038;0.0248504;0.154193;-0.399356
0.0104;0.0265526;0.165328;-0.398587
0.01042;0.0285009;0.172429;-0.399196
0.01044;0.0305104;0.186578;-0.399356
0.01046;0.0323797;0.190002;-0.39918
0.01048;0.0340611;0.198741;-0.399212
