t;vds;corrente;vg
0;-0.00207384;0.0177304;0
2e-05;-0.0020422;0.0161807;0
4e-05;-0.00211239;0.0196483;0
6e-05;-0.00202639;0.0130206;0
8e-05;-0.00205011;0.018394;0
0.0001;-0.00198092;0.0184304;0
0.00012;-0.0019572;0.0137409;0
0.00014;-0.00173479;0.0192599;0
0.00016;-0.000628675;0.0235165;0
0.00018;-0.000443828;0.0201258;0
0.0002;0.000602974;0.0230309;0
0.00022;0.00237829;0.0230552;0
0.00024;0.0044798;0.0302817;0
0.00026;0.00653486;0.0319932;0
0.00028;0.00840704;0.038273;0
0.0003;0.0102288;0.041433;0
0.00032;0.0121385;0.0411094;0
0.00034;0.0142391;0.0489509;0
0.00036;0.0161577;0.0529931;0
0.00038;0.0180348;0.0560803;0
0.0004;0.0200335;0.0596936;0
0.00042;0.0219897;0.0624086;0
0.00044;0.0239468;0.0659935;0
0.00046;0.0258981;0.0702501;0
0.00048;0.0278257;0.0790303;0
0.0005;0.0296623;0.0768817;0
0.00052;0.0316204;0.0854718;0
0.00054;0.0336627;0.088721;0
0.00056;0.0356149;0.0948348;0
0.00058;0.0374516;0.0921846;0
0.0006;0.0394838;0.0970723;0
0.00062;0.0414452;0.105072;0
0.00064;0.0432312;0.106269;0
0.00066;0.0452014;0.110817;0
0.00068;0.0471772;0.114245;0
0.0007;0.0470401;0.115677;0
0.00072;0.0450252;0.109919;0
0.00074;0.0431681;0.110364;0
0.00076;0.0411949;0.103219;0
0.00078;0.039228;0.0986625;0
0.0008;0.0372666;0.0925163;0
0.00082;0.0353373;0.0932406;0
0.00084;0.0332861;0.0851725;0
0.00086;0.0314722;0.0819557;0
0.00088;0.0294518;0.0785003;0
0.0009;0.0275044;0.0713547;0
0.00092;0.0255868;0.068579;0
0.00094;0.0236266;0.0629993;0
0.00096;0.0217031;0.0629588;0
0.00098;0.0198289;0.0565699;0
0.001;0.0177195;0.0557323;0
0.00102;0.0160085;0.0494607;0
0.00104;0.0138466;0.0505451;0
0.00106;0.0119141;0.0428249;0
0.00108;0.010039;0.0362701;0
0.0011;0.00809271;0.0340892;0
0.00112;0.00613551;0.031006;0
0.00114;0.00433944;0.0326933;0
0.00116;0.00238916;0.0258228;0
0.00118;0.000461621;0.0224361;0
0.0012;-0.0015618;0.0174148;0
0.00122;-0.00345079;0.0117623;0
0.00124;-0.00556615;0.0101034;-0.000368156
0.00126;-0.00719813;0.011912;-0.00080034
0.00128;-0.00937476;0.00536931;-0.000144061
0.0013;-0.0113991;-0.000643347;-0.000144061
0.00132;-0.0132239;0.000764731;0
0.00134;-0.0153116;-0.0060612;0
0.00136;-0.0173607;-0.00659935;0
0.00138;-0.0190055;-0.0102854;0
0.0014;-0.021286;-0.0182483;0
0.00142;-0.0230335;-0.017342;0
0.00144;-0.0249414;-0.0189321;0
0.00146;-0.0270528;-0.0245037;0
0.00148;-0.0288973;-0.0218292;0
0.0015;-0.0308545;-0.0306014;0
0.00152;-0.032866;-0.0321511;0
0.00154;-0.0346512;-0.0365007;0
0.00156;-0.0366993;-0.0408949;0
0.00158;-0.0386921;-0.0462076;0
0.0016;-0.0405514;-0.0413197;0
0.00162;-0.0425947;-0.0503387;0
0.00164;-0.0445556;-0.0462723;0
0.00166;-0.0464586;-0.0536243;0
0.00168;-0.0483523;-0.0562219;0
0.0017;-0.0485047;-0.0548584;0
0.00172;-0.0465922;-0.0564566;0
0.00174;-0.0446774;-0.0507798;0
0.00176;-0.0426955;-0.048178;0
0.00178;-0.0408064;-0.0454347;0
0.0018;-0.03879;-0.0433833;0
0.00182;-0.0369157;-0.0380868;0
0.00184;-0.034911;-0.0354649;0
0.00186;-0.0330221;-0.033547;0
0.00188;-0.0310175;-0.0303748;0
0.0019;-0.029173;-0.0271419;0
0.00192;-0.0271416;-0.0269234;0
0.00194;-0.0251211;-0.0210928;0
0.00196;-0.0232747;-0.0182807;0
0.00198;-0.0212137;-0.0146067;0
0.002;-0.0192871;-0.00976345;0
0.00202;-0.0173112;-0.00750164;0
0.00204;-0.0154608;-0.0029254;0
0.00206;-0.0135866;-0.00366181;0
0.00208;-0.0115543;-0.00251674;0
0.0021;-0.00940144;0.00696351;0
0.00212;-0.00748084;0.0115114;0
0.00214;-0.00558493;0.010075;0
0.00216;-0.00364058;0.0151935;0
0.00218;-0.00157663;0.0147039;0
0.0022;0.000242178;0.0210362;0
0.00222;0.00207186;0.0230714;0
0.00224;0.00421983;0.0294361;0
0.00226;0.00606236;0.0324221;0
0.00228;0.00785547;0.0336481;0
0.0023;0.00989371;0.0399764;0
0.00232;0.0118776;0.0443463;0
0.00234;0.0138496;0.0481012;0
0.00236;0.0158216;0.0490278;0
0.00238;0.0177462;0.0556757;0
0.0024;0.0196925;0.0574924;0
0.00242;0.0217406;0.0619878;0
0.00244;0.0235682;0.0666085;0
0.00246;0.0254909;0.0694368;0
0.00248;0.0273977;0.0708003;0
0.0025;0.0293559;0.0787714;0
0.00252;0.0312557;0.0812234;0
0.00254;0.0332683;0.0864834;0
0.00256;0.0351691;0.0899591;0
0.00258;0.0371056;0.0966757;0
0.0026;0.0390905;0.0971331;0
0.00262;0.041116;0.103332;0
0.00264;0.0431284;0.110081;0
0.00266;0.0449225;0.109551;0
0.00268;0.0467779;0.114937;0
0.0027;0.0474887;0.118412;0
0.00272;0.0454047;0.11051;0
0.00274;0.0434567;0.11034;0
0.00276;0.0416248;0.105173;0
0.00278;0.0397014;0.0997995;0
0.0028;0.037495;0.0973556;0
0.00282;0.0357376;0.0914157;0
0.00284;0.0337606;0.0870418;0
0.00286;0.0316878;0.0822592;0
0.00288;0.0299836;0.0805921;0
0.0029;0.0279039;0.0746078;0
0.00292;0.0261196;0.0704645;0
0.00294;0.0241506;0.0685992;0
0.00296;0.0221509;0.0640554;0
0.00298;0.0201254;0.0618461;0
0.003;0.0184638;0.0561895;0
0.00302;0.0162615;0.0516295;0
0.00304;0.0144338;0.0466243;0
0.00306;0.0124242;0.0443908;0
0.00308;0.0103435;0.040466;0
0.0031;0.00857804;0.0358776;0
0.00312;0.00642613;0.0331545;0
0.00314;0.00459447;0.0287806;0
0.00316;0.00266396;0.0264459;0
0.00318;0.00077497;0.0224766;0
0.0032;-0.00103494;0.0185316;-0.00044819
0.00322;-0.00320367;0.0160998;-0.000336143
0.00324;-0.00531309;0.0115074;0
0.00326;-0.0069945;0.0111311;0
0.00328;-0.00894082;0.00607739;0
0.0033;-0.0110225;0.00366181;0
0.00332;-0.0129629;-0.00126241;0
0.00334;-0.0147452;-0.00156183;0
0.00336;-0.0168338;-0.00764731;0
0.00338;-0.0186882;-0.00853342;0
0.0034;-0.0207265;-0.013401;0
0.00342;-0.0226737;-0.0228731;0
0.00344;-0.024544;-0.0207489;0
0.00346;-0.0266365;-0.0228246;0
0.00348;-0.0288716;-0.0261991;0
0.0035;-0.0304106;-0.0298326;0
0.00352;-0.0325497;-0.0304395;0
0.00354;-0.0344564;-0.0349591;0
0.00356;-0.0362545;-0.0376013;0
0.00358;-0.0383847;-0.0420157;0
0.0036;-0.0403566;-0.040203;0
0.00362;-0.0420135;-0.0477775;0
0.00364;-0.0442778;-0.0502538;0
0.00366;-0.0461156;-0.0507475;0
0.00368;-0.0479955;-0.0555787;0
0.0037;-0.048823;-0.0584514;0
0.00372;-0.0469184;-0.0508891;0
0.00374;-0.0451142;-0.0511723;0
0.00376;-0.043177;-0.0491127;0
0.00378;-0.041099;-0.0460902;0
0.0038;-0.0392833;-0.0406198;0
0.00382;-0.0371322;-0.0423191;0
0.00384;-0.0353086;-0.0370551;0
0.00386;-0.0333385;-0.0334944;0
0.00388;-0.0313457;-0.0313418;0
0.0039;-0.029432;-0.0275303;0
0.00392;-0.027461;-0.0194541;0
0.00394;-0.025661;-0.0239413;0
0.00396;-0.0235525;-0.0178113;0
0.00398;-0.0217495;-0.0142143;0
0.004;-0.0196282;-0.0111432;0
0.00402;-0.0176216;-0.00729529;0
0.00404;-0.0158018;-0.00600051;0
0.00406;-0.0139039;-0.00933053;0
0.00408;-0.0120763;0.000335835;0
0.0041;-0.00988974;0.00619473;0
0.00412;-0.00801066;0.00501324;0
0.00414;-0.00599119;0.010253;0
0.00416;-0.00410616;0.0138096;0
0.00418;-0.00204418;0.020583;0
0.0042;-6.52397e-05;0.0186084;0
0.00422;0.00181288;0.0237552;0
0.00424;0.00364058;0.0290759;0
0.00426;0.00562051;0.0333123;0
0.00428;0.00759946;0.0349025;0
0.0043;0.00934806;0.0391267;0
0.00432;0.0112538;0.0399278;0
0.00434;0.0133642;0.0442816;0
0.00436;0.0155122;0.0488983;0
0.00438;0.0172648;0.0548017;0
0.0044;0.0191883;0.0576785;0
0.00442;0.0211772;0.0603936;0
0.00444;0.0231215;0.0631369;0
0.00446;0.0250323;0.068664;0
0.00448;0.0271674;0.0725807;0
0.0045;0.0286818;0.07532;0
0.00452;0.030887;0.073649;0
0.00454;0.0328808;0.0902384;0
0.00456;0.034669;0.0871753;0
0.00458;0.0366865;0.0921886;0
0.0046;0.0387731;0.0951909;0
0.00462;0.0406581;0.109341;0
0.00464;0.0426481;0.0918244;0
0.00466;0.0443559;0.119072;0
0.00468;0.0467591;0.110227;0
0.0047;0.0470271;0.111493;0
0.00472;0.0460848;0.119132;0
0.00474;0.0440298;0.107398;0
0.00476;0.0413035;0.0991965;0
0.00478;0.0403331;0.104509;0
0.0048;0.0381514;0.0942602;0
0.00482;0.0355912;0.0873655;-9.60408e-05
0.00484;0.0346789;0.0890892;0
0.00486;0.0319724;0.0811424;0
0.00488;0.0300893;0.0841083;0
0.0049;0.0285423;0.07392;0
0.00492;0.0260375;0.0732686;0
0.00494;0.0243937;0.0680773;0
0.00496;0.0227488;0.0634687;0
0.00498;0.0202866;0.0602519;0
0.005;0.0188355;0.0562543;0
0.00502;0.0168041;0.0505289;0
0.00504;0.0144022;0.0493434;0
0.00506;0.013043;0.0465191;0
0.00508;0.0107497;0.0414573;0
0.0051;0.00864723;0.035558;0
0.00512;0.00710027;0.0378522;0
0.00514;0.0050294;0.0307106;-0.000288122
0.00516;0.00293777;0.028117;-0.000576245
0.00518;0.00101418;0.0235408;-0.000240102
0.0052;-0.000691936;0.0203402;-1.60068e-05
0.00522;-0.00268175;0.0156547;0
0.00524;-0.00464191;0.0100022;0
0.00526;-0.00687885;0.00812071;0
0.00528;-0.00853158;0.0081207;0
0.0053;-0.0105313;-0.000368204;0
0.00532;-0.0126041;0.000732362;0
0.00534;-0.0145741;-0.00171154;0
0.00536;-0.0164186;-0.00752996;0
0.00538;-0.0183393;-0.00991317;0
0.0054;-0.0203024;-0.0119039;0
0.00542;-0.0222467;-0.0166217;0
0.00544;-0.0242049;-0.0205668;0
0.00546;-0.0260988;-0.0233304;0
0.00548;-0.0283654;-0.0242407;0
0.0055;-0.0301397;-0.0317343;0
0.00552;-0.0319605;-0.0288939;0
0.00554;-0.0341145;-0.0362256;0
0.00556;-0.0360745;-0.0394585;0
0.00558;-0.0376701;-0.039151;0
0.0056;-0.0399098;-0.0453457;0
0.00562;-0.0417584;-0.0464625;-1.60068e-05
0.00564;-0.043747;-0.0527139;0
0.00566;-0.0459437;-0.0545791;0
0.00568;-0.0476051;-0.0522162;0
0.0057;-0.0488704;-0.0568127;0
0.00572;-0.0475322;-0.0579618;0
0.00574;-0.0454117;-0.0515405;0
0.00576;-0.0435487;-0.0497763;0
0.00578;-0.0416742;-0.0462683;0
0.0058;-0.0396203;-0.04414;0
0.00582;-0.0377836;-0.0393978;0
0.00584;-0.0358897;-0.0357441;0
0.00586;-0.033811;-0.0330736;0
0.00588;-0.0319289;-0.0306054;0
0.0059;-0.0298848;-0.0267009;0
0.00592;-0.0279246;-0.0267454;0
0.00594;-0.0261394;-0.0225939;0
0.00596;-0.0239816;-0.0188512;0
0.00598;-0.0220412;-0.0144773;0
0.006;-0.020163;-0.0129478;0
0.00602;-0.0180328;-0.00723055;0
0.00604;-0.0162358;-0.00482712;0
0.00606;-0.0141936;-0.00203119;0
0.00608;-0.0122018;0.00103583;0
0.0061;-0.0102574;0.000347973;0
0.00612;-0.00844855;0.00766348;0
0.00614;-0.00644194;0.0110866;0
0.00616;-0.00439479;0.0131137;0
0.00618;-0.0025315;0.0138501;0
0.0062;-0.000421093;0.020935;0
0.00622;0.00128107;0.0220801;0
0.00624;0.00314338;0.0279511;-8.0034e-05
0.00626;0.00520733;0.0292176;0
0.00628;0.00712103;0.0324626;0
0.0063;0.0090456;0.038714;0
0.00632;0.0111006;0.0409556;0
0.00634;0.0129847;0.0451231;0
0.00636;0.0149903;0.0492544;0
0.00638;0.016985;0.0506098;0
0.0064;0.0186892;0.053515;0
0.00642;0.0209093;0.0612312;0
0.00644;0.0228369;0.0661513;0
0.00646;0.0247091;0.0671062;0
0.00648;0.0265466;0.0726656;0
0.0065;0.028573;0.0757691;0
0.00652;0.030465;0.0813447;0
0.00654;0.0324083;0.0816118;0
0.00656;0.0342341;0.0907845;0
0.00658;0.0363661;0.0936371;0
0.0066;0.0382651;0.100556;0
0.00662;0.0402804;0.103716;0
0.00664;0.0421448;0.105493;0
0.00666;0.0442195;0.110214;0
0.00668;0.0461028;0.1149;0
0.0067;0.0474925;0.1184;0
0.00672;0.0461897;0.117384;0
0.00674;0.0441692;0.107637;0
0.00676;0.0421576;0.105978;0
0.00678;0.0403962;0.101843;0
0.0068;0.0383983;0.0965221;0
0.00682;0.0364116;0.0914724;0
0.00684;0.0343684;0.0913186;0
0.00686;0.0323015;0.0831129;0
0.00688;0.0306053;0.0797505;0
0.0069;0.0286293;0.0751621;0
0.00692;0.0267512;0.0726778;0
0.00694;0.0247525;0.0659489;0
0.00696;0.022824;0.0680409;0
0.00698;0.021023;0.0590745;0
0.007;0.0190381;0.0565699;0
0.00702;0.0170384;0.0503953;0
0.00704;0.0151643;0.0506543;0
0.00706;0.0131448;0.0464059;0
0.00708;0.0111174;0.0396932;0
0.0071;0.0091978;0.0350967;-0.000736313
0.00712;0.00744426;0.037399;-0.000944402
0.00714;0.00541194;0.0307228;-0.000176075
0.00716;0.00357435;0.0260373;0
0.00718;0.00147877;0.027769;0
0.0072;-0.000512032;0.0230673;0
0.00722;-0.00211239;0.0154524;0
0.00724;-0.00422478;0.0160593;0
0.00726;-0.00626402;0.0133484;0
0.00728;-0.00828546;0.00740049;0
0.0073;-0.0100697;0.00335835;0
0.00732;-0.0122483;-0.00156588;0
0.00734;-0.0140562;-0.00274332;0
0.00736;-0.016044;-0.00442654;0
0.00738;-0.0180259;-0.00963399;0
0.0074;-0.0200058;-0.0141212;0
0.00742;-0.0219848;-0.01612;0
0.00744;-0.0237946;-0.0177871;0
0.00746;-0.025908;-0.022161;0
0.00748;-0.027884;-0.0274656;0
0.0075;-0.0296603;-0.0284448;0
0.00752;-0.0315631;-0.0325395;0
0.00754;-0.0335816;-0.0332354;0
0.00756;-0.0356218;-0.0370753;0
0.00758;-0.0375237;-0.038451;0
0.0076;-0.0393988;-0.040377;0
0.00762;-0.0413739;-0.0447024;0
0.00764;-0.0434743;-0.0511237;0
0.00766;-0.0452439;-0.0511844;0
0.00768;-0.0474934;-0.0584676;0
0.0077;-0.0488457;-0.057197;0
0.00772;-0.0476805;-0.0568046;0
0.00774;-0.0459622;-0.05273;0
0.00776;-0.0438846;-0.0535878;0
0.00778;-0.0420686;-0.0470168;0
0.0078;-0.0401491;-0.0449492;0
0.00782;-0.0380059;-0.0404903;0
0.00784;-0.036212;-0.0403568;0
0.00786;-0.0342943;-0.0346233;0
0.00788;-0.0321791;-0.0323008;0
0.0079;-0.0303701;-0.0292135;0
0.00792;-0.02831;-0.0239818;0
0.00794;-0.0263005;-0.0248072;0
0.00796;-0.0245845;-0.0199518;0
0.00798;-0.022398;-0.0142183;0
0.008;-0.0206543;-0.0173622;0
0.00802;-0.0185409;-0.0102409;0
0.00804;-0.016474;-0.00662362;0
0.00806;-0.0147807;-0.000817333;0
0.00808;-0.0126743;-0.00173987;0
0.0081;-0.0105856;0.00489995;0
0.00812;-0.00870752;0.00520341;0
0.00814;-0.00680373;0.00666813;0
0.00816;-0.0047121;0.0110097;0
0.00818;-0.00287648;0.0174634;0
0.0082;-0.000813521;0.0198142;0
0.00822;0.00111204;0.0216917;0
0.00824;0.00284288;0.0263043;0
0.00826;0.00492067;0.0317262;0
0.00828;0.00676023;0.0323089;0
0.0083;0.00860177;0.0394423;0
0.00832;0.0105896;0.0382406;0
0.00834;0.0126189;0.0442897;0
0.00836;0.0146137;0.0485585;0
0.00838;0.0165343;0.0495457;0
0.0084;0.0183502;0.0537578;0
0.00842;0.0203746;0.0623722;0
0.00844;0.0223623;0.0641848;0
0.00846;0.0241742;0.0649212;0
0.00848;0.0262184;0.0734831;0
0.0085;0.0281727;0.0759229;0
0.00852;0.0301536;0.0814621;0
0.00854;0.0320297;0.0821944;0
0.00856;0.0339058;0.089599;0
0.00858;0.0358471;0.0901574;0
0.0086;0.0378262;0.094511;0
0.00862;0.0397813;0.098177;0
0.00864;0.0417713;0.104853;0
0.00866;0.043748;0.105234;0
0.00868;0.0455839;0.112816;0
0.0087;0.0475953;0.115179;0
0.00872;0.0465674;0.114241;0
0.00874;0.044789;0.109519;0
0.00876;0.0426648;0.106282;0
0.00878;0.0408094;0.101503;0
0.0088;0.0387544;0.0993908;0
0.00882;0.0369829;0.0939607;0
0.00884;0.0348034;0.0914967;0
0.00886;0.0329519;0.0878672;0
0.00888;0.0311272;0.0829308;0
0.0089;0.0290128;0.0774321;0
0.00892;0.0270724;0.0727345;0
0.00894;0.0252428;0.0692507;0
0.00896;0.0233093;0.0656698;0
0.00898;0.0213709;0.0607294;0
0.009;0.0192624;0.0604826;0
0.00902;0.0173468;0.0507353;0
0.00904;0.0153115;0.0512774;-0.000832354
0.00906;0.0134453;0.0476075;-0.00113648
0.00908;0.0116265;0.0443787;-4.80204e-05
0.0091;0.0096624;0.0423556;0
0.00912;0.0077329;0.032762;0
0.00914;0.00572727;0.0300875;0
0.00916;0.00380467;0.0298933;0
0.00918;0.00199377;0.0271783;0
0.0092;7.80901e-05;0.0196726;0
0.00922;-0.00192458;0.0155333;0
0.00924;-0.00391143;0.016727;0
0.00926;-0.00590124;0.0105242;0
0.00928;-0.00781989;0.00746118;0
0.0093;-0.00983636;0.00353638;0
0.00932;-0.0118746;0.00607738;0
0.00934;-0.0135965;-0.00037225;0
0.00936;-0.0156694;-0.00536526;0
0.00938;-0.0174743;-0.0098363;0
0.0094;-0.0195264;-0.00799932;0
0.00942;-0.0215706;-0.0160917;0
0.00944;-0.0234171;-0.0164761;0
0.00946;-0.0253456;-0.0218818;0
0.00948;-0.0274046;-0.0237714;0
0.0095;-0.0294073;-0.026543;0
0.00952;-0.0311935;-0.0295574;0
0.00954;-0.0332456;-0.0328227;0
0.00956;-0.0351939;-0.0335227;0
0.00958;-0.0372045;-0.0387545;0
0.0096;-0.0391972;-0.0391753;0
0.00962;-0.0409974;-0.0431608;0
0.00964;-0.0429278;-0.0485018;0
0.00966;-0.0449602;-0.0471098;0
0.00968;-0.0468471;-0.0594548;0
0.0097;-0.0487469;-0.0550688;0
0.00972;-0.0480965;-0.0533653;0
0.00974;-0.0463181;-0.0506058;-1.60068e-05
0.00976;-0.0444411;-0.052378;0
0.00978;-0.0422881;-0.0488619;0
0.0098;-0.040417;-0.0468712;0
0.00982;-0.0385724;-0.0345545;0
0.00984;-0.0364008;-0.0405429;0
0.00986;-0.0346066;-0.0331222;0
0.00988;-0.0326762;-0.0346314;0
0.0099;-0.0306626;-0.0347528;0
0.00992;-0.0286253;-0.0134253;0
0.00994;-0.0267177;-0.039062;0
0.00996;-0.0250688;-0.0171194;0
0.00998;-0.0224918;-0.0112565;0
0.01;-0.0209597;-0.0214529;0
0.01002;-0.0194819;-0.0085132;-0.000192082
0.01004;-0.0164374;-0.00671668;-4.80204e-05
0.01006;-0.0152285;-0.00653866;0
0.01008;-0.013645;-0.00350806;-0.00044819
0.0101;-0.0104739;0.00518722;0
0.01012;-0.00943207;0.00695137;0
0.01014;-0.00735728;0.0121588;0
0.01016;-0.00467651;0.0132877;0
0.01018;-0.00386101;0.0152299;-3.20136e-05
0.0102;-0.000984529;0.020846;0
0.01022;0.000691937;0.0221691;0
0.01024;0.00212425;0.0254182;0
0.01026;0.00473977;0.0287887;0
0.01028;0.006265;0.0299621;0
0.0103;0.00803439;0.0390175;0
0.01032;0.0104987;0.0410932;0
0.01034;0.0119478;0.0424689;0
0.01036;0.014155;0.0473486;0
0.01038;0.0163662;0.0536324;0
0.0104;0.017848;0.0566266;0
0.01042;0.0199791;0.0595075;0
0.01044;0.0221726;0.0663819;0
0.01046;0.0237581;0.0649657;0
0.01048;0.0259337;0.0724593;0
0.0105;0.0277368;0.0738997;0
0.01052;0.0295783;0.0793177;0
0.01054;0.0318715;0.087232;0
0.01056;0.0336034;0.0925001;0
0.01058;0.0355625;0.0919903;0
0.0106;0.0376562;0.096773;0
0.01062;0.0394699;0.0984481;0
0.01064;0.0414739;0.101414;0
0.01066;0.0433587;0.104975;0
0.01068;0.0451668;0.112242;0
0.0107;0.0470912;0.114823;0
0.01072;0.0470005;0.114487;0
0.01074;0.0449877;0.109778;0
0.01076;0.0431425;0.105416;0
0.01078;0.0412324;0.102025;0
0.0108;0.0391835;0.0958261;0
0.01082;0.0371471;0.0950371;0
0.01084;0.0352434;0.0886238;0
0.01086;0.0334532;0.0864915;0
0.01088;0.0314554;0.0834488;0
0.0109;0.0293559;0.073212;0
0.01092;0.0273473;0.0746928;0
0.01094;0.0255403;0.0746442;0
0.01096;0.0235456;0.0585283;0
0.01098;0.0217535;0.0651033;-0.000640272
0.011;0.0199564;0.0609156;-0.0011685
0.01102;0.0179122;0.0560965;-0.000208088
0.01104;0.0159432;0.0549635;0
0.01106;0.0138446;0.0478827;0
0.01108;0.0119784;0.0411741;0
0.0111;0.00987196;0.042744;0
0.01112;0.00802351;0.036355;0
0.01114;0.00613551;0.0293673;0
0.01116;0.00419413;0.0265107;0
0.01118;0.00234666;0.0282101;0
0.0112;0.000440863;0.0230026;0
0.01122;-0.00166362;0.0180582;0
0.01124;-0.00361884;0.0158934;0
0.01126;-0.00560272;0.0134819;0
0.01128;-0.00749863;0.00733575;0
0.0113;-0.00943109;0.00297396;0
0.01132;-0.0113616;3.23696e-05;0
0.01134;-0.0134344;-0.00540572;0
0.01136;-0.0153195;-0.00345546;0
0.01138;-0.0173448;-0.00591958;0
0.0114;-0.0191795;-0.0115114;0
0.01142;-0.0211999;-0.0130247;0
0.01144;-0.0230929;-0.0148657;0
0.01146;-0.0251124;-0.0190373;0
0.01148;-0.0270014;-0.026539;0
0.0115;-0.029089;-0.0291164;0
0.01152;-0.030892;-0.0318881;0
0.01154;-0.0328404;-0.0347406;0
0.01156;-0.034755;-0.032843;0
0.01158;-0.0367882;-0.0413197;0
0.0116;-0.0387277;-0.0433024;0
0.01162;-0.0406986;-0.0416596;0
0.01164;-0.0426313;-0.0512936;0
0.01166;-0.0446031;-0.0509214;0
0.01168;-0.0465318;-0.0540248;0
0.0117;-0.0483671;-0.0572092;0
0.01172;-0.0485739;-0.0558132;0
0.01174;-0.0465616;-0.0539682;0
0.01176;-0.0447752;-0.0547734;0
0.01178;-0.0428418;-0.0518561;0
0.0118;-0.0408103;-0.043622;0
0.01182;-0.0390203;-0.0418782;0
0.01184;-0.0368732;-0.0401383;0
0.01186;-0.0350031;-0.0382608;0
0.01188;-0.0330003;-0.0327175;0
0.0119;-0.0311391;-0.0298731;0
0.01192;-0.0290474;-0.024791;0
0.01194;-0.0271802;-0.0232413;0
0.01196;-0.025219;-0.0200894;0
0.01198;-0.0231926;-0.0159582;0
0.012;-0.0215222;-0.012964;0
0.01202;-0.0191814;-0.013405;0
0.01204;-0.0173349;-0.00962184;0
0.01206;-0.0154845;-0.00507393;0
0.01208;-0.0135323;-0.000501729;0
0.0121;-0.011667;0.00379938;0
0.01212;-0.0096535;0.000902302;0
0.01214;-0.00752236;0.00822186;0
0.01216;-0.00569564;0.0143397;0
0.01218;-0.0037335;0.0138784;0
0.0122;-0.00159838;0.0214367;0
0.01222;0.000238224;0.0261506;0
0.01224;0.00216873;0.0250702;0
0.01226;0.00417634;0.0277893;-6.40272e-05
0.01228;0.00600701;0.0320378;0
0.0123;0.00791083;0.0350238;0
0.01232;0.0098848;0.0395475;0
0.01234;0.0117085;0.045103;0
0.01236;0.0138496;0.0470694;0
0.01238;0.0158077;0.0515809;0
0.0124;0.0176602;0.0534098;0
0.01242;0.0195649;0.0562867;0
0.01244;0.0215972;0.0621415;0
0.01246;0.0235179;0.0661554;0
0.01248;0.0254306;0.0689148;0
0.0125;0.0272336;0.0763639;0
0.01252;0.029261;0.0811343;0
0.01254;0.0311757;0.0800945;0
0.01256;0.0330598;0.0848648;0
0.01258;0.035099;0.0914239;0
0.0126;0.0370889;0.0947782;0
0.01262;0.038963;0.0990509;0
0.01264;0.040943;0.101855;0
0.01266;0.0429209;0.105578;-9.60408e-05
0.01268;0.0447623;0.108463;0
0.0127;0.0467206;0.110053;0
0.01272;0.0474324;0.114637;0
0.01274;0.0454087;0.109527;0
0.01276;0.0434261;0.105748;0
0.01278;0.041517;0.105302;0
0.0128;0.0396955;0.0993787;0
