t;vds;corrente;vg
0.000499;-0.0399735;-0.0282407;-0.0181225
0.000998;-0.0404099;-0.0289206;-0.0158821
0.001497;-0.0409268;-0.0289951;-0.0158821
0.001996;-0.0414528;-0.0288544;-0.0158503
0.002495;-0.0419643;-0.0289868;-0.0158821
0.002994;-0.0425265;-0.0290531;-0.0158821
0.003493;-0.0430182;-0.0291814;-0.0158821
0.003992;-0.0434731;-0.0294878;-0.0158821
0.004491;-0.0438894;-0.0298397;-0.0158821
0.00499;-0.0443809;-0.0303365;-0.0155957
0.005489;-0.0448388;-0.0307132;-0.0156275
0.005988;-0.0453593;-0.0309658;-0.0158821
0.006487;-0.0458486;-0.0311438;-0.0156593
0.006986;-0.0462558;-0.0309989;-0.0158821
0.007485;-0.0468375;-0.0312307;-0.0158185
0.007984;-0.0473564;-0.0312597;-0.0153411
0.008483;-0.0478143;-0.0314542;-0.0138452
0.008982;-0.0483285;-0.0324891;-0.0155957
0.009481;-0.0488881;-0.0327209;-0.0157867
0.00998;-0.0489979;-0.0327665;-0.0151501
0.010479;-0.0484913;-0.03287;-0.0145454
0.010978;-0.0479937;-0.0318724;-0.0152138
0.011477;-0.0474276;-0.0313053;-0.0144499
0.011976;-0.0468867;-0.0312017;-0.0156912
0.012475;-0.0464719;-0.0309948;-0.0142589
0.012974;-0.0460687;-0.0309865;-0.0158821
0.013473;-0.0455782;-0.0309865;-0.0158503
0.013972;-0.045133;-0.0309285;-0.0157548
0.014471;-0.0446729;-0.0305145;-0.015532
0.01497;-0.0441995;-0.030262;-0.0158821
0.015469;-0.0437;-0.0297072;-0.0158821
0.015968;-0.0432855;-0.02926;-0.0153092
0.016467;-0.0427065;-0.029169;-0.0158821
0.016966;-0.0419958;-0.0289744;-0.0156912
0.017465;-0.041507;-0.0286102;-0.0158821
0.017964;-0.0410737;-0.027774;-0.0158821
0.018463;-0.0405541;-0.0278319;-0.0158821
0.018962;-0.0400435;-0.0274966;-0.0158821
0.019461;-0.0395709;-0.0270247;-0.0158821
0.01996;-0.0391644;-0.0271696;-0.0158821
0.020459;-0.038665;-0.0271448;-0.0158503
0.020958;-0.0381992;-0.0269958;-0.0158821
0.021457;-0.0377266;-0.0270786;-0.0158821
0.021956;-0.0371709;-0.0268053;-0.0158821
0.022455;-0.0366832;-0.0265362;-0.0158821
0.022954;-0.0362569;-0.0262795;-0.0158821
0.023453;-0.0356579;-0.0261719;-0.0158821
0.023952;-0.0351556;-0.0254018;-0.0158821
0.024451;-0.0347333;-0.024996;-0.0158821
0.02495;-0.0342664;-0.0255219;-0.0158821
0.025449;-0.0337069;-0.0248097;-0.0158821
0.025948;-0.0332656;-0.024789;-0.0158821
0.026447;-0.0328512;-0.0244496;-0.0158821
0.026946;-0.0323599;-0.0243088;-0.0158821
0.027445;-0.0318515;-0.0238245;-0.0158821
0.027944;-0.0313857;-0.0235347;-0.0158821
0.028443;-0.0308636;-0.0229842;-0.0158821
0.028942;-0.0303338;-0.022711;-0.0158821
0.029441;-0.029876;-0.0227234;-0.0158821
0.02994;-0.0293676;-0.0225536;-0.0158185
0.030439;-0.0288426;-0.0226406;-0.0158821
0.030938;-0.0283352;-0.0225992;-0.0158821
0.031437;-0.0278843;-0.0216345;-0.0158821
0.031936;-0.0274009;-0.021084;-0.0154684
0.032435;-0.0268224;-0.0212454;-0.0158503
0.032934;-0.0264336;-0.0206865;-0.0158821
0.033433;-0.025943;-0.0205457;-0.0158821
0.033932;-0.0254753;-0.0205582;-0.0158821
0.034431;-0.0250865;-0.0205954;-0.0156593
0.03493;-0.024664;-0.0206741;-0.0158821
0.035429;-0.0240414;-0.0206161;-0.0158821
0.035928;-0.023538;-0.0204464;-0.0158503
0.036427;-0.0230781;-0.0197344;-0.0150864
0.036926;-0.0225581;-0.019279;-0.0158821
0.037425;-0.0221169;-0.0188278;-0.0158821
0.037924;-0.021662;-0.0186539;-0.0158821
0.038423;-0.0212001;-0.0187284;-0.0158821
0.038922;-0.0206228;-0.018567;-0.0158821
0.039421;-0.0201699;-0.0184759;-0.0158821
0.03992;-0.0197721;-0.0181737;-0.0158821
0.040419;-0.019182;-0.0180743;-0.0158821
0.040918;-0.0187922;-0.0179791;-0.0158821
0.041417;-0.0183598;-0.0171263;-0.0158821
0.041916;-0.0178773;-0.0167455;-0.0158821
0.042415;-0.0173158;-0.0165633;-0.0158503
0.042914;-0.016924;-0.0165757;-0.0158821
0.043413;-0.0164345;-0.0164557;-0.0158821
0.043912;-0.0159341;-0.0161783;-0.0158821
0.044411;-0.015487;-0.0161162;-0.0158821
0.04491;-0.0150026;-0.0159754;-0.0158821
0.045409;-0.0144578;-0.0150689;-0.0156593
0.045908;-0.0140216;-0.0148618;-0.0158821
0.046407;-0.0135785;-0.0147004;-0.0158821
0.046906;-0.0130623;-0.0144603;-0.0158185
0.047405;-0.0126073;-0.0144851;-0.0158821
0.047904;-0.012182;-0.0143692;-0.0158821
0.048403;-0.0116403;-0.0138559;-0.0157867
0.048902;-0.011137;-0.0135454;-0.0158821
0.049401;-0.0105388;-0.0133839;-0.0158821
0.0499;-0.0100208;-0.0134543;-0.0155639
0.050399;-0.00953428;-0.0127215;-0.0158185
0.050898;-0.00905163;-0.0127133;-0.0158821
0.051397;-0.00867369;-0.0125394;-0.0158821
0.051896;-0.00814471;-0.0123945;-0.0158821
0.052395;-0.00769472;-0.0120426;-0.0158821
0.052894;-0.00719042;-0.0115997;-0.0157548
0.053393;-0.00675617;-0.011165;-0.0158821
0.053892;-0.00618382;-0.0105399;-0.0158821
0.054391;-0.00573969;-0.0104447;-0.0154366
0.05489;-0.00524032;-0.0103163;-0.0158821
0.055389;-0.00468176;-0.0103909;-0.0157867
0.055888;-0.00414389;-0.00999347;-0.0158821
0.056387;-0.00363863;-0.0094884;-0.0156593
0.056886;-0.0031679;-0.00955877;-0.0158821
0.057385;-0.0026399;-0.00924003;-0.0158821
0.057884;-0.00218988;-0.00846588;-0.0158821
0.058383;-0.00172902;-0.00828372;-0.0158503
0.058882;-0.0012257;-0.00834582;-0.0158821
0.059381;-0.000748052;-0.00813468;-0.0158821
0.05988;-0.000304945;-0.00772898;-0.0158821
0.060379;0.000182573;-0.00762548;-0.0158821
0.060878;0.000658246;-0.00683063;-0.0158821
0.061377;0.00103622;-0.00668576;-0.0158503
0.061876;0.00157309;-0.00627591;-0.0158821
0.062375;0.00206257;-0.00666918;-0.0158821
0.062874;0.00255504;-0.00626349;-0.0155957
0.063373;0.00313236;-0.00616;-0.0157867
0.063872;0.00366231;-0.00619726;-0.0158185
0.064371;0.00415376;-0.00619726;-0.0158821
0.06487;0.00463142;-0.00612274;-0.014991
0.065369;0.00517126;-0.00612688;-0.0153729
0.065868;0.00556305;-0.00567154;-0.0157548
0.066367;0.006017;-0.00492636;-0.015532
0.066866;0.00652723;-0.00505883;-0.0155639
0.067365;0.00709768;-0.00416463;-0.015723
0.067864;0.00751313;-0.00414393;-0.0145454
0.068363;0.0080559;-0.00413151;-0.0155002
0.068862;0.00853256;-0.00419361;-0.0158821
0.069361;0.0090635;-0.00409839;-0.0157548
0.06986;0.00960134;-0.00388726;-0.0158821
0.070359;0.0101007;-0.00293512;-0.0156912
0.070858;0.0105102;-0.00274468;-0.0154684
0.071357;0.0109544;-0.00227689;-0.0155639
0.071856;0.0114834;-0.00209888;-0.0156275
0.072355;0.012028;-0.00218581;-0.0156912
0.072854;0.0124189;-0.00205334;-0.0158821
0.073353;0.0128778;-0.00192914;-0.0158821
0.073852;0.0135094;-0.00165592;-0.0158821
0.074351;0.0139141;-0.0018836;-0.0158821
0.07485;0.0143907;-0.00143651;-0.0158821
0.075349;0.014892;-0.000869357;-0.0157867
0.075848;0.0154713;2.48388e-05;-0.0158821
0.076347;0.0158739;-0.000277367;-0.0158821
0.076846;0.0163279;0;-0.0158821
0.077345;0.016854;6.2097e-05;-0.0158821
0.077844;0.0172527;0;-0.0158821
0.078343;0.0177549;0.000128334;-0.0158821
0.078842;0.0182049;0.000231829;-0.0158821
0.079341;0.0186451;0.00131231;-0.0157548
0.07984;0.0190823;0.000898335;-0.0158821
0.080339;0.0195432;0.00180495;-0.0158821
0.080838;0.0200476;0.00207404;-0.0158185
0.081337;0.0205004;0.00195812;-0.0158821
0.081836;0.0210433;0.00211543;-0.0158821
0.082335;0.0216225;0.00248802;-0.0158821
0.082834;0.0220675;0.00304275;-0.0158821
0.083333;0.0225533;0.0031214;-0.0158821
0.083832;0.0230643;0.0036306;-0.0158821
0.084331;0.0235036;0.00367199;-0.0158821
0.08483;0.0239496;0.00428055;-0.0158821
0.085329;0.0243491;0.00421431;-0.0158821
0.085828;0.0249592;0.00429296;-0.0158821
0.086327;0.0253707;0.00442131;-0.0158821
0.086826;0.0258879;0.00483943;-0.0158821
0.087325;0.0264315;0.00584124;-0.0158821
0.087824;0.0269331;0.00614344;-0.0158821
0.088323;0.0273228;0.00593231;-0.0158821
0.088822;0.0279197;0.00619726;-0.0158821
0.089321;0.0284488;0.00661538;-0.0158821
0.08982;0.0288573;0.00680166;-0.0158821
0.090319;0.0293401;0.00699624;-0.0158821
0.090818;0.0298462;0.00770827;-0.0158821
0.091317;0.0302734;0.00760064;-0.0158821
0.091816;0.0308026;0.00805603;-0.0158821
0.092315;0.0313777;0.00801876;-0.0158821
0.092814;0.0317954;0.00798151;-0.0158821
0.093313;0.0322828;0.0081057;-0.0158821
0.093812;0.0328363;0.00825474;-0.0158821
0.094311;0.03325;0.00827958;-0.0158821
0.09481;0.0337118;0.00826302;-0.0158821
0.095309;0.0342724;0.00831684;-0.0158821
0.095808;0.0348694;0.0092607;-0.0158821
0.096307;0.0353508;0.00963328;-0.0158821
0.096806;0.0358306;0.00996032;-0.0158821
0.097305;0.0363931;0.0102915;-0.0156275
0.097804;0.0367427;0.00943871;-0.0158821
0.098303;0.037162;0.0101839;-0.0158503
0.098802;0.0376791;0.0103039;-0.0158821
0.099301;0.0381539;0.0103453;-0.0155957
0.0998;0.0386452;0.0107634;-0.0152138
0.100299;0.0391485;0.0109787;-0.0152456
0.100798;0.0397041;0.0119433;-0.0158185
0.101297;0.0401257;0.0120468;-0.0158821
0.101796;0.0406366;0.0123945;-0.0156912
0.102295;0.041204;0.0124193;-0.0158503
0.102794;0.0416296;0.0130031;-0.0158821
0.103293;0.0420245;0.0126843;-0.0158821
0.103792;0.042495;0.0130859;-0.0158821
0.104291;0.0429876;0.013119;-0.0158821
0.10479;0.0433734;0.013947;-0.0158821
0.105289;0.043916;0.0143609;-0.0158821
0.105788;0.0444411;0.0144148;-0.0158821
0.106287;0.0449208;0.014481;-0.0158821
0.106786;0.0454491;0.0156484;-0.0158821
0.107285;0.0459096;0.0157519;-0.0158821
0.107784;0.0463506;0.0161121;-0.0158821
0.108283;0.0468346;0.0161493;-0.0158821
0.108782;0.0474136;0.0164805;-0.0158821
0.109281;0.0478093;0.016377;-0.0158821
0.10978;0.0482425;0.0165385;-0.0158821
0.110279;0.0478862;0.0163687;-0.0158821
0.110778;0.0474128;0.0161576;-0.0158821
0.111277;0.0469242;0.0157395;-0.0158821
0.111776;0.0463979;0.0153793;-0.0158821
0.112275;0.0459602;0.0149778;-0.0158821
0.112774;0.0455111;0.0150688;-0.0158821
0.113273;0.0450352;0.0146093;-0.0158821
0.113772;0.0445663;0.0139635;-0.0158821
0.114271;0.0441324;0.0144106;-0.0158821
0.11477;0.0436743;0.0139387;-0.0157867
0.115269;0.0431818;0.0135992;-0.0158821
0.115768;0.0427163;0.0128706;-0.0158821
0.116267;0.042197;0.0128954;-0.0158821
0.116766;0.0416927;0.0131852;-0.0158821
0.117265;0.0412069;0.0125311;-0.0158821
0.117764;0.0406547;0.0122869;-0.0153092
0.118263;0.0401167;0.0123076;-0.0158821
0.118762;0.039707;0.0122786;-0.0156912
0.119261;0.0392404;0.0121792;-0.0144181
0.11976;0.0387242;0.0114382;-0.0154684
0.120259;0.0383265;0.0106517;-0.0158821
0.120758;0.0378905;0.0110201;-0.0158821
0.121257;0.0373751;0.0107759;-0.0158821
0.121756;0.0369133;0.0104033;-0.0156912
0.122255;0.0363871;0.0102543;-0.0158821
0.122754;0.03588;0.0101963;-0.0158821
0.123253;0.035344;0.0099231;-0.0158821
0.123752;0.0349167;0.00979475;-0.0158821
0.124251;0.0343287;0.00876396;-0.0158185
0.12475;0.0337602;0.0086232;-0.0156912
0.125249;0.0332943;0.00826716;-0.0158821
0.125748;0.032942;0.00857766;-0.0156912
0.126247;0.0324299;0.00823818;-0.0155957
0.126746;0.0319513;0.00829614;-0.0158821
0.127245;0.0314449;0.00821748;-0.0158821
0.127744;0.0309101;0.00818851;-0.0158821
0.128243;0.0304452;0.00822162;-0.0158821
0.128742;0.029942;0.00809328;-0.0158185
0.129241;0.0294554;0.00713699;-0.0158821
0.12974;0.0289294;0.00739365;-0.0158821
0.130239;0.0284132;0.00647877;-0.0158821
0.130738;0.0279465;0.00629661;-0.0158821
0.131237;0.0274897;0.0063587;-0.0158821
0.131736;0.0269182;0.00608134;-0.0158821
0.132235;0.0264405;0.00610618;-0.0158821
0.132734;0.025946;0.005597;-0.0158821
0.133233;0.0254359;0.00456206;-0.0158821
0.133732;0.025052;0.00441717;-0.0158185
0.134231;0.0245732;0.00415221;-0.0156275
0.13473;0.0240355;0.00413151;-0.0158821
0.135229;0.0236052;0.00405699;-0.0158821
0.135728;0.0231708;0.00411909;-0.015532
0.136227;0.0226311;0.00363888;-0.0158821
0.136726;0.0221633;0.0034112;-0.0158821
0.137225;0.0216848;0.00286475;-0.0158503
0.137724;0.0211449;0.00228516;-0.0158821
0.138223;0.0206218;0.00238867;-0.0154047
0.138722;0.0201778;0.00201608;-0.0157548
0.139221;0.0197238;0.00235555;-0.0151819
0.13972;0.019183;0.00185048;-0.0158821
0.140219;0.0187655;0.001925;-0.0158821
0.140718;0.0183342;0.00182565;-0.0158821
0.141217;0.0178447;0.0014986;-0.0158821
0.141716;0.0173425;0.000898335;-0.0158821
0.142215;0.0169497;0.000310485;-0.0158821
0.142714;0.0164997;0.000293926;-0.0158821
0.143213;0.0159331;0.00021113;-0.0158503
0.143712;0.0154515;-0.000140753;-0.0155639
0.144211;0.0149671;-0.000604411;-0.0156912
0.14471;0.0144499;-0.00127092;-0.0156593
0.145209;0.0140176;-0.00182565;-0.0158821
0.145708;0.0135755;-0.00206576;-0.0158821
0.146207;0.0130879;-0.00176355;-0.0158821
0.146706;0.0126162;-0.00206576;-0.0155002
0.147205;0.0121653;-0.00206576;-0.0155957
0.147704;0.0116965;-0.00224791;-0.0155639
0.148203;0.011134;-0.00206576;-0.0156275
0.148702;0.0106731;-0.00233899;-0.0143862
0.149201;0.010224;-0.00261221;-0.0152456
0.1497;0.00965273;-0.00350641;-0.0155957
0.150199;0.00911776;-0.00403215;-0.0156593
0.150698;0.00858193;-0.00413151;-0.013877
0.151197;0.00811214;-0.00414393;-0.0152456
0.151696;0.00764045;-0.00415635;-0.0155639
0.152195;0.00722003;-0.0043592;-0.0156912
0.152694;0.00676506;-0.00497191;-0.0158821
0.153193;0.00631901;-0.00506711;-0.015532
0.153692;0.00577819;-0.00563425;-0.0158185
0.154191;0.00531729;-0.00603994;-0.0158821
0.15469;0.00479231;-0.00612688;-0.0158821
0.155189;0.00429192;-0.00619726;-0.0158821
0.155688;0.00373929;-0.00619726;-0.0158821
0.156187;0.00322613;-0.00625935;-0.0158821
0.156686;0.00265667;-0.0064415;-0.015723
0.157185;0.00216521;-0.00652429;-0.0158821
0.157684;0.00167968;-0.00743091;-0.0155639
0.158183;0.00125827;-0.00791941;-0.0157548
0.158682;0.000813186;-0.00828786;-0.0158503
0.159181;0.000359223;-0.00833754;-0.0158185
0.15968;-0.000213166;-0.00834996;-0.0158821
0.160179;-0.000651338;-0.00856938;-0.0158821
0.160678;-0.001128;-0.00920276;-0.0155002
0.161177;-0.00157012;-0.0096664;-0.0158821
0.161676;-0.00210008;-0.00989411;-0.0158821
0.162175;-0.00256195;-0.00982784;-0.0158821
0.162674;-0.00312841;-0.010337;-0.0158821
0.163173;-0.00354389;-0.0102791;-0.0158821
0.163672;-0.0040373;-0.0103412;-0.0158821
0.164171;-0.00454457;-0.0103867;-0.0158821
0.16467;-0.0050854;-0.0107966;-0.0158821
0.165169;-0.00553838;-0.0112188;-0.015723
0.165668;-0.00602489;-0.0116121;-0.0158821
0.166167;-0.00657461;-0.0121213;-0.0158821
0.166666;-0.00699701;-0.0118025;-0.0157867
0.167165;-0.00748451;-0.0119391;-0.0156275
0.167664;-0.0079651;-0.0122827;-0.0158821
0.168163;-0.00850394;-0.0121792;-0.0158821
0.168662;-0.00897467;-0.0122703;-0.0158821
0.169161;-0.00952042;-0.0126056;-0.0158821
0.16966;-0.0100316;-0.0126388;-0.0158821
0.170159;-0.0105073;-0.013326;-0.0158821
0.170658;-0.0109988;-0.0133798;-0.0158821
0.171157;-0.0114755;-0.0136986;-0.0158821
0.171656;-0.0120024;-0.014332;-0.0158821
0.172155;-0.0124119;-0.0144106;-0.0158821
0.172654;-0.0128975;-0.0144272;-0.0158821
0.173153;-0.0134423;-0.0144603;-0.0154366
0.173652;-0.0138864;-0.0145182;-0.0158821
0.174151;-0.0144351;-0.0146921;-0.0158821
0.17465;-0.0149413;-0.0152551;-0.0158821
0.175149;-0.0153657;-0.0154497;-0.0158821
0.175648;-0.01587;-0.0160293;-0.0158821
0.176147;-0.0164059;-0.0163687;-0.0158821
0.176646;-0.0169517;-0.0165012;-0.0158821
0.177145;-0.0172832;-0.0165674;-0.0158821
0.177644;-0.017749;-0.0171305;-0.0158821
0.178143;-0.0182681;-0.0175362;-0.0158821
0.178642;-0.018656;-0.0175859;-0.0158821
0.179141;-0.019104;-0.0183517;-0.0158821
0.17964;-0.0195442;-0.0184138;-0.0158821
0.180139;-0.0200693;-0.0185007;-0.0158821
0.180638;-0.0205093;-0.0186125;-0.0158821
0.181137;-0.021067;-0.018894;-0.0158821
0.181636;-0.0216304;-0.0187284;-0.0158821
0.182135;-0.0220271;-0.0187326;-0.0158821
0.182634;-0.0225227;-0.0194902;-0.0158821
0.183133;-0.0231482;-0.0193328;-0.0158821
0.183632;-0.0235875;-0.0201773;-0.0158821
0.184131;-0.0239397;-0.0205582;-0.0158821
0.18463;-0.0243965;-0.02067;-0.0158821
0.185129;-0.0249237;-0.0210302;-0.0158821
0.185628;-0.0253233;-0.0208356;-0.0158821
0.186127;-0.0258534;-0.0214193;-0.0158821
0.186626;-0.0262707;-0.0222307;-0.0158821
0.187125;-0.0267692;-0.0225578;-0.0158821
0.187624;-0.0273386;-0.0227069;-0.0158821
0.188123;-0.0278773;-0.0227276;-0.0158821
0.188622;-0.0283373;-0.0226986;-0.0158821
0.189121;-0.0288168;-0.0227897;-0.0158821
0.18962;-0.0293746;-0.0228642;-0.0158821
0.190119;-0.0298847;-0.0237128;-0.0158821
0.190618;-0.0303001;-0.0239487;-0.0158821
0.191117;-0.0306821;-0.023895;-0.0157548
0.191616;-0.0312653;-0.0237335;-0.0158821
0.192115;-0.0316739;-0.0239156;-0.0158821
0.192614;-0.032266;-0.0245779;-0.0158821
0.193113;-0.0328116;-0.0247849;-0.0158821
0.193612;-0.0331819;-0.0250002;-0.0158503
0.194111;-0.0336704;-0.0251078;-0.0158821
0.19461;-0.0341915;-0.0256627;-0.0158821
0.195109;-0.0347204;-0.0259773;-0.0158821
0.195608;-0.035195;-0.0268012;-0.0158821
0.196107;-0.0357033;-0.0266852;-0.0158821
0.196606;-0.0362056;-0.0266687;-0.0158821
0.197105;-0.0366894;-0.0268715;-0.0158821
0.197604;-0.0371542;-0.0271696;-0.0158821
0.198103;-0.0376959;-0.0280513;-0.0158821
0.198602;-0.0381075;-0.028457;-0.0158821
0.199101;-0.0386344;-0.0286846;-0.0158821
0.1996;-0.0390488;-0.0287509;-0.0158821
0.200099;-0.0395611;-0.0286184;-0.0158185
0.200598;-0.040016;-0.0289537;-0.0158821
0.201097;-0.0405419;-0.0290365;-0.0158821
0.201596;-0.0410699;-0.0294091;-0.0158821
0.202095;-0.0415961;-0.0295872;-0.0158821
0.202594;-0.0421222;-0.0293304;-0.0158821
0.203093;-0.0426568;-0.0304069;-0.0158821
0.203592;-0.0430497;-0.0304193;-0.0158821
0.204091;-0.0435165;-0.0303365;-0.0158503
0.20459;-0.0440117;-0.030854;-0.0158821
0.205089;-0.0445388;-0.0307753;-0.0158821
0.205588;-0.0449505;-0.0309658;-0.0158821
0.206087;-0.0453751;-0.0308375;-0.0158821
0.206586;-0.0460062;-0.0309741;-0.0158821
0.207085;-0.0464316;-0.0310279;-0.0158821
0.207584;-0.0468839;-0.0310362;-0.0158821
0.208083;-0.0474234;-0.0311107;-0.0157867
0.208582;-0.047915;-0.0321869;-0.0158821
0.209081;-0.0484747;-0.0327002;-0.0158821
0.20958;-0.0488919;-0.0327499;-0.0158821
0.210079;-0.0489485;-0.0329859;-0.0158821
0.210578;-0.0483876;-0.032605;-0.0158821
0.211077;-0.0478468;-0.0323525;-0.0158821
0.211576;-0.0473654;-0.0314501;-0.0158821
0.212075;-0.0469035;-0.0312763;-0.0158821
0.212574;-0.0463723;-0.0313756;-0.0158821
0.213073;-0.0459079;-0.0310734;-0.0158821
0.213572;-0.0454775;-0.0311107;-0.0158821
0.214071;-0.0450352;-0.0310279;-0.0158821
0.21457;-0.0445732;-0.0309865;-0.0158821
0.215069;-0.0441137;-0.0309575;-0.0158821
0.215568;-0.0436624;-0.0308788;-0.0158821
0.216067;-0.0431818;-0.0308788;-0.0158821
0.216566;-0.0425801;-0.0297362;-0.0158821
0.217065;-0.0420579;-0.0299968;-0.0158821
0.217564;-0.0414853;-0.02902;-0.0158821
0.218063;-0.0409879;-0.028933;-0.0158821
0.218562;-0.0404603;-0.0289082;-0.0158821
0.219061;-0.0400031;-0.0286474;-0.0158821
0.21956;-0.0395561;-0.0287426;-0.0158821
0.220059;-0.0390617;-0.028399;-0.0157867
0.220558;-0.0385861;-0.0278857;-0.0158821
0.221057;-0.0381361;-0.0273973;-0.0158821
0.221556;-0.0377247;-0.0273518;-0.0158821
0.222055;-0.0372094;-0.0269461;-0.0158821
0.222554;-0.0367266;-0.0269047;-0.0158821
0.223053;-0.0361947;-0.0268301;-0.0158821
0.223552;-0.0356302;-0.0261636;-0.0158821
0.224051;-0.0351615;-0.0263582;-0.0158821
0.22455;-0.0347382;-0.0262506;-0.0158821
0.225049;-0.0342852;-0.0260269;-0.0158821
0.225548;-0.0336842;-0.0255301;-0.0158821
0.226047;-0.0332173;-0.0252486;-0.0158821
0.226546;-0.0327762;-0.0250167;-0.0158821
0.227045;-0.0323126;-0.0248511;-0.0158821
0.227544;-0.0317774;-0.0244372;-0.0158821
0.228043;-0.0313147;-0.0244248;-0.0158821
0.228542;-0.0308429;-0.0238287;-0.0158821
0.229041;-0.0303436;-0.0233816;-0.0158821
0.22954;-0.0298385;-0.0229842;-0.0158821
0.230039;-0.0293705;-0.0228766;-0.0158821
0.230538;-0.0288821;-0.022889;-0.0158821
0.231037;-0.0283164;-0.022711;-0.0156593
0.231536;-0.0278636;-0.0226572;-0.0152774
0.232035;-0.0273595;-0.0225785;-0.0152456
0.232534;-0.0267651;-0.0221893;-0.0155957
0.233033;-0.0263359;-0.0221935;-0.0158185
0.233532;-0.0259134;-0.0210715;-0.0158821
0.234031;-0.0253955;-0.0206575;-0.0158821
0.23453;-0.0249295;-0.0206575;-0.0158821
0.235029;-0.02459;-0.0206161;-0.0158821
0.235528;-0.0239447;-0.0203967;-0.0158503
0.236027;-0.0234304;-0.0205333;-0.0158821
0.236526;-0.0229844;-0.0204381;-0.0158821
0.237025;-0.0224366;-0.0197468;-0.0158821
0.237524;-0.0219472;-0.0192708;-0.0158821
0.238023;-0.0215604;-0.0190141;-0.0158821
0.238522;-0.0210679;-0.0186249;-0.0158821
0.239021;-0.0205488;-0.0185753;-0.0158821
0.23952;-0.0201443;-0.0186332;-0.0158821
0.240019;-0.0196222;-0.01824;-0.0158821
0.240518;-0.0191771;-0.0182068;-0.0158821
