t;vds;corrente;vg
0.000499;-0.0362885;-0.0257485;0.216767
0.000998;-0.0367348;-0.0264451;0.22235
0.001497;-0.0372222;-0.0266273;0.22235
0.001996;-0.0377749;-0.0263913;0.22235
0.002495;-0.0382239;-0.0266894;0.22235
0.002994;-0.0387252;-0.026855;0.222445
0.003493;-0.039266;-0.026826;0.22235
0.003992;-0.0397278;-0.0274304;0.22235
0.004491;-0.0401119;-0.0274593;0.22235
0.00499;-0.0406297;-0.0277698;0.22235
0.005489;-0.0411162;-0.0280927;0.22235
0.005988;-0.0415674;-0.0288626;0.22235
0.006487;-0.042062;-0.0289206;0.22235
0.006986;-0.042646;-0.0288006;0.222445
0.007485;-0.0432007;-0.029227;0.22235
0.007984;-0.0435708;-0.0296452;0.22235
0.008483;-0.0441775;-0.0299059;0.22235
0.008982;-0.0447026;-0.0308167;0.22235
0.009481;-0.0451795;-0.0309782;0.22235
0.00998;-0.0457175;-0.031003;0.22235
0.010479;-0.0461018;-0.0309865;0.22235
0.010978;-0.0465916;-0.0311479;0.22235
0.011477;-0.0470251;-0.0314045;0.22235
0.011976;-0.0474796;-0.0309989;0.22235
0.012475;-0.0480254;-0.0314625;0.22235
0.012974;-0.0484846;-0.0317564;0.22235
0.013473;-0.0488152;-0.0322448;0.22235
0.013972;-0.0485249;-0.0314708;0.22235
0.014471;-0.0480194;-0.03121;0.222668
0.01497;-0.0476072;-0.0311355;0.2227
0.015469;-0.0471532;-0.0312307;0.22235
0.015968;-0.0466853;-0.0310734;0.222413
0.016467;-0.0461613;-0.0309865;0.22235
0.016966;-0.0456759;-0.030618;0.22235
0.017465;-0.0451814;-0.0306304;0.22235
0.017964;-0.0446295;-0.0301502;0.22235
0.018463;-0.0442359;-0.0297403;0.22235
0.018962;-0.0437711;-0.029732;0.22235
0.019461;-0.0432381;-0.0290986;0.22235
0.01996;-0.0427735;-0.0290323;0.22235
0.020459;-0.0421842;-0.0290283;0.22235
0.020958;-0.0416472;-0.0288875;0.22235
0.021457;-0.0411359;-0.0282583;0.22235
0.021956;-0.0407542;-0.0279023;0.22235
0.022455;-0.0402322;-0.027389;0.222573
0.022954;-0.0397494;-0.0274884;0.22235
0.023453;-0.0393352;-0.0271613;0.22235
0.023952;-0.0387597;-0.0268716;0.22235
0.024451;-0.0382584;-0.0266935;0.222827
0.02495;-0.0376959;-0.0266024;0.222668
0.025449;-0.0372735;-0.0265735;0.222763
0.025948;-0.0367405;-0.0264493;0.22235
0.026447;-0.0362392;-0.0266231;0.22235
0.026946;-0.0358277;-0.0260518;0.22235
0.027445;-0.0353539;-0.0263457;0.22235
0.027944;-0.0348822;-0.0255923;0.222413
0.028443;-0.0344925;-0.0252941;0.22235
0.028942;-0.0339959;-0.0249339;0.22235
0.029441;-0.0333901;-0.0249091;0.22235
0.02994;-0.0329469;-0.0247559;0.22235
0.030439;-0.0324872;-0.0246731;0.22235
0.030938;-0.0319009;-0.0240853;0.22235
0.031437;-0.0314478;-0.0234686;0.222573
0.031936;-0.0309209;-0.0227234;0.225151
0.032435;-0.0304334;-0.0227648;0.223304
0.032934;-0.0299953;-0.0228849;0.222604
0.033433;-0.0295068;-0.0227317;0.222541
0.033932;-0.029105;-0.022711;0.222445
0.034431;-0.0285495;-0.0226572;0.22235
0.03493;-0.0280944;-0.0223632;0.22235
0.035429;-0.0276061;-0.0216718;0.22235
0.035928;-0.0271068;-0.0209556;0.222445
0.036427;-0.0265826;-0.0207941;0.22235
0.036926;-0.0260694;-0.0206948;0.222573
0.037425;-0.0255375;-0.0206575;0.222445
0.037924;-0.0250816;-0.0206161;0.22235
0.038423;-0.0245565;-0.0205747;0.22235
0.038922;-0.0241006;-0.0200283;0.22235
0.039421;-0.0236161;-0.0191879;0.222509
0.03992;-0.0231925;-0.0188982;0.22235
0.040419;-0.0227526;-0.0191879;0.22235
0.040918;-0.022261;-0.0187698;0.22235
0.041417;-0.0217281;-0.0185463;0.22235
0.041916;-0.0212703;-0.0183435;0.22235
0.042415;-0.0208043;-0.0179294;0.22235
0.042914;-0.0202884;-0.0179916;0.22235
0.043413;-0.0198343;-0.0173789;0.22235
0.043912;-0.019257;-0.0166047;0.22235
0.044411;-0.0188485;-0.016613;0.22235
0.04491;-0.0183569;-0.016642;0.22235
0.045409;-0.0179167;-0.0165012;0.22235
0.045908;-0.0174323;-0.016141;0.22235
0.046407;-0.0170375;-0.0161783;0.22235
0.046906;-0.0166458;-0.0162445;0.22235
0.047405;-0.0161276;-0.0159837;0.22235
0.047904;-0.0156854;-0.0154869;0.22235
0.048403;-0.015198;-0.0156111;0.22235
0.048902;-0.0146858;-0.0157188;0.22235
0.049401;-0.0142101;-0.0151144;0.22235
0.0499;-0.0137394;-0.0152675;0.22235
0.050399;-0.0131847;-0.0145845;0.222413
0.050898;-0.0126547;-0.0147542;0.22235
0.051397;-0.0122265;-0.0144189;0.22235
0.051896;-0.0117597;-0.0143568;0.22235
0.052395;-0.011131;-0.0139925;0.22235
0.052894;-0.01068;-0.0133674;0.22235
0.053393;-0.0102221;-0.0126139;0.22235
0.053892;-0.0096705;-0.012498;0.22235
0.054391;-0.00922041;-0.0125063;0.22235
0.05489;-0.00882958;-0.0125477;0.22235
0.055389;-0.00833126;-0.0119515;0.22235
0.055888;-0.00774998;-0.0119557;0.22235
0.056387;-0.00729603;-0.011935;0.22235
0.056886;-0.00684303;-0.0105233;0.22235
0.057385;-0.0062381;-0.0103329;0.22235
0.057884;-0.00569232;-0.0104571;0.22235
0.058383;-0.0052117;-0.0102998;0.22235
0.058882;-0.0047015;-0.00990651;0.22235
0.059381;-0.0041281;-0.00945116;0.22235
0.05988;-0.00369192;-0.0084369;0.22235
0.060379;-0.00324587;-0.0088716;0.22235
0.060878;-0.00277312;-0.00832512;0.22235
0.061377;-0.00232805;-0.00834996;0.22235
0.061876;-0.00178428;-0.00808914;0.22235
0.062375;-0.00128393;-0.00810984;0.22235
0.062874;-0.000804304;-0.00782419;0.22235
0.063373;-0.000350341;-0.00733156;0.22235
0.063872;0.000177638;-0.0070459;0.222954
0.064371;0.000620745;-0.00678925;0.22235
0.06487;0.00106089;-0.00649946;0.22235
0.065369;0.00153164;-0.00644565;0.222827
0.065868;0.00202409;-0.00622623;0.22235
0.066367;0.00252248;-0.00616414;0.222859
0.066866;0.0029567;-0.00608549;0.22235
0.067365;0.00350737;-0.00525754;0.22235
0.067864;0.00401066;-0.00542315;0.22235
0.068363;0.00447646;-0.0054397;0.22235
0.068862;0.00499856;-0.00476492;0.22235
0.069361;0.00553049;-0.00420189;0.222509
0.06986;0.00604758;-0.00415221;0.222382
0.070359;0.00647097;-0.0039742;0.22235
0.070858;0.00697826;-0.00389968;0.22235
0.071357;0.00748549;-0.00423087;0.22235
0.071856;0.00795424;-0.00378791;0.22235
0.072355;0.00850493;-0.00376721;0.22235
0.072854;0.00901711;-0.00312555;0.22235
0.073353;0.0093882;-0.00219409;0.22235
0.073852;0.00992505;-0.00220651;0.22235
0.074351;0.0104283;-0.0020699;0.22235
0.07485;0.0108685;-0.00181737;0.22305
0.075349;0.0114262;-0.00159796;0.22235
0.075848;0.0119629;-0.00151516;0.22235
0.076347;0.0124524;-0.00042226;0.22235
0.076846;0.0128482;-0.00103081;0.22235
0.077345;0.013389;-0.000165592;0.222445
0.077844;0.0138983;8.2796e-05;0.22235
0.078343;0.0143137;0.000314625;0.22235
0.078842;0.0148397;0.000285646;0.22235
0.079341;0.0153074;0.000583712;0.22235
0.07984;0.0157624;0.00105565;0.222509
0.080339;0.0162391;0.00111774;0.222477
0.080838;0.0166724;0.000981131;0.222382
0.081337;0.0171333;0.00156484;0.222573
0.081836;0.0175911;0.00170973;0.222382
0.082335;0.0181526;0.00210301;0.223368
0.082834;0.0186294;0.00233485;0.223018
0.083333;0.0190952;0.00310486;0.223113
0.083832;0.0195155;0.00267845;0.222732
0.084331;0.0200121;0.00242179;0.22235
0.08483;0.0204264;0.00301377;0.22235
0.085329;0.0210393;0.00404457;0.22235
0.085828;0.0216136;0.00403629;0.22235
0.086327;0.0220133;0.00405699;0.22235
0.086826;0.0223924;0.00411081;0.22235
0.087325;0.0228393;0.00418947;0.22235
0.087824;0.0233368;0.00435921;0.22235
0.088323;0.0238164;0.00426812;0.22235
0.088822;0.0243541;0.00521615;0.222891
0.089321;0.0247746;0.0054521;0.222573
0.08982;0.0253411;0.00586609;0.222382
0.090319;0.025802;0.00595715;0.22235
0.090818;0.0263309;0.00617656;0.22235
0.091317;0.0267544;0.00620554;0.22235
0.091816;0.0273139;0.00638354;0.222445
0.092315;0.0278576;0.00638769;0.222382
0.092814;0.02821;0.00673956;0.22235
0.093313;0.0286333;0.00671888;0.22235
0.093812;0.0292088;0.00733984;0.222668
0.094311;0.0296696;0.00750543;0.22235
0.09481;0.0302616;0.00819264;0.222477
0.095309;0.0307799;0.00826302;0.22235
0.095808;0.0313028;0.00826302;0.22235
0.096307;0.0317934;0.0084576;0.222923
0.096806;0.0323025;0.00836652;0.222986
0.097305;0.0327504;0.00826302;0.222541
0.097804;0.0332086;0.00870183;0.222764
0.098303;0.0336526;0.0092566;0.222891
0.098802;0.0341618;0.0100224;0.222382
0.099301;0.0346326;0.0103039;0.222445
0.0998;0.034978;0.0102625;0.22235
0.100299;0.0355788;0.0105316;0.222764
0.100798;0.0360655;0.0104281;0.22235
0.101297;0.0366034;0.0106103;0.22235
0.101796;0.03709;0.0111484;0.22235
0.102295;0.0375952;0.010929;0.22235
0.102794;0.0380897;0.011492;0.22235
0.103293;0.0385979;0.0121668;0.22235
0.103792;0.0390883;0.0122455;0.22235
0.104291;0.0395492;0.0124773;0.22235
0.10479;0.0400348;0.0128706;0.22235
0.105289;0.040541;0.0135661;0.222604
0.105788;0.0409593;0.0132887;0.22235
0.106287;0.0414588;0.0141829;0.222763
0.106786;0.0418775;0.0142781;0.222636
0.107285;0.0423697;0.0145265;0.222795
0.107784;0.0428473;0.0144479;0.222732
0.108283;0.0434593;0.0144934;0.22235
0.108782;0.0439436;0.0145886;0.22235
0.109281;0.0444164;0.0154249;0.22235
0.10978;0.044824;0.0159216;0.22235
0.110279;0.0453612;0.0164018;0.22235
0.110778;0.0457835;0.0161576;0.223432
0.111277;0.0462716;0.0164019;0.22235
0.111776;0.046716;0.0170353;0.223241
0.112275;0.0472026;0.0172547;0.223273
0.112774;0.0476297;0.0169069;0.22235
0.113273;0.0480847;0.0179915;0.22235
0.113772;0.0481349;0.0176728;0.22235
0.114271;0.0477167;0.0172464;0.22235
0.11477;0.0471966;0.0166544;0.22235
0.115269;0.0467841;0.0167165;0.22235
0.115768;0.0462944;0.0162611;0.22235
0.116267;0.045743;0.0156857;0.22235
0.116766;0.0453039;0.0151392;0.22235
0.117265;0.0448644;0.0148577;0.22235
0.117764;0.044448;0.0152717;0.22235
0.118263;0.0439251;0.0148163;0.22235
0.118762;0.0434148;0.0147128;0.22235
0.119261;0.0429609;0.0142781;0.22235
0.11976;0.042427;0.013889;0.22235
0.120259;0.041906;0.0137731;0.22235
0.120758;0.0414744;0.0130652;0.22235
0.121257;0.0409939;0.0134419;0.22235
0.121756;0.0405166;0.0129368;0.222572
0.122255;0.0399981;0.0127091;0.22235
0.122754;0.0395018;0.0123945;0.22235
0.123253;0.0390726;0.01232;0.22235
0.123752;0.038661;0.0123076;0.22235
0.124251;0.0381716;0.0123738;0.22235
0.12475;0.0375785;0.0120509;0.22235
0.125249;0.0370979;0.0115831;0.22235
0.125748;0.0366161;0.0105896;0.222382
0.126247;0.0360991;0.0104198;0.22235
0.126746;0.035567;0.0104447;0.22235
0.127245;0.0351112;0.0101301;0.22235
0.127744;0.0346415;0.00974925;0.22235
0.128243;0.0341292;0.00972441;0.22235
0.128742;0.0336734;0.0100473;0.22235
0.129241;0.0331876;0.00887988;0.22235
0.12974;0.0327062;0.00897096;0.22235
0.130239;0.0322721;0.00854868;0.22235
0.130738;0.03173;0.00852798;0.22235
0.131237;0.0311796;0.00826302;0.22235
0.131736;0.0306277;0.00806845;0.22235
0.132235;0.030168;0.00802704;0.222413
0.132734;0.0296135;0.00778693;0.22235
0.133233;0.0291938;0.00740607;0.22235
0.133732;0.0287745;0.00717839;0.22235
0.134231;0.0282621;0.00683478;0.22235
0.13473;0.0277521;0.00620967;0.22235
0.135229;0.0272331;0.00616828;0.22235
0.135728;0.0267691;0.00619726;0.22235
0.136227;0.0263428;0.00577087;0.22235
0.136726;0.0257546;0.00533619;0.22235
0.137225;0.0253323;0.00459104;0.22235
0.137724;0.0247844;0.00425985;0.22235
0.138223;0.0242792;0.00431367;0.22235
0.138722;0.0238234;0.00413151;0.22235
0.139221;0.0233139;0.00413151;0.22235
0.13972;0.0228305;0.00413151;0.22235
0.140219;0.0223784;0.00406941;0.22235
0.140718;0.0219334;0.0039742;0.22235
0.141217;0.0214173;0.00400318;0.22235
0.141716;0.0210106;0.0036099;0.22235
0.142215;0.020469;0.00288545;0.22235
0.142714;0.0199004;0.00256253;0.22235
0.143213;0.0194159;0.00226033;0.22235
0.143712;0.0190548;0.00214855;0.22235
0.144211;0.0185138;0.00205748;0.22235
0.14471;0.0180283;0.00169317;0.22235
0.145209;0.0175516;0.00191258;0.22235
0.145708;0.0171027;0.00134129;0.22235
0.146207;0.0166497;0.000463658;0.22235
0.146706;0.0162667;0.000861077;0.22235
0.147205;0.0157643;0.000484357;0.22235
0.147704;0.0152769;0.00061269;0.22235
0.148203;0.0147993;9.93552e-05;0.22235
0.148702;0.014366;0.000144893;0.22235
0.149201;0.0138874;5.79572e-05;0.22235
0.1497;0.0134442;-0.000327044;0.22235
0.150199;0.012933;-0.000505056;0.22235
0.150698;0.0124099;-0.001155;0.22235
0.151197;0.0119087;-0.00120468;0.22235
0.151696;0.0113768;-0.00172629;0.222445
0.152195;0.0108655;-0.00193742;0.22235
0.152694;0.0103395;-0.00206576;0.22235
0.153193;0.00987572;-0.00223549;0.22235
0.153692;0.00949381;-0.00226861;0.22235
0.154191;0.00884636;-0.00272399;0.222509
0.15469;0.00833323;-0.00257082;0.22235
0.155189;0.00790982;-0.0035478;0.22235
0.155688;0.00745592;-0.00404044;0.22235
0.156187;0.0069506;-0.00409425;0.22235
0.156686;0.0064453;-0.00430539;0.22235
0.157185;0.00594399;-0.00461174;0.22235
0.157684;0.00547225;-0.00437577;0.22235
0.158183;0.00487026;-0.00540242;0.22235
0.158682;0.00440936;-0.00568394;0.22235
0.159181;0.00393566;-0.00603994;0.22235
0.15968;0.003386;-0.00616;0.22235
0.160179;0.00293992;-0.00623451;0.22235
0.160678;0.00239319;-0.00621795;0.22235
0.161177;0.00196191;-0.00663608;0.222477
0.161676;0.0014971;-0.00695898;0.22235
0.162175;0.00108754;-0.00778693;0.22235
0.162674;0.000550677;-0.00747231;0.22235
0.163173;1.6777e-05;-0.00822576;0.22235
0.163672;-0.000476661;-0.0083541;0.22235
0.164171;-0.00105596;-0.00826716;0.22235
0.16467;-0.00147144;-0.0084783;0.22235
0.165169;-0.00192836;-0.00869771;0.22235
0.165668;-0.00238332;-0.00861906;0.22235
0.166167;-0.00290045;-0.00917794;0.22235
0.166666;-0.00331987;-0.00950082;0.22235
0.167165;-0.00378862;-0.0100886;0.22235
0.167664;-0.00433436;-0.0101052;0.22235
0.168163;-0.00480808;-0.0102584;0.222636
0.168662;-0.0053183;-0.0103163;0.22235
0.169161;-0.00578905;-0.0103453;0.22235
0.16966;-0.00627062;-0.0104737;0.22235
0.170159;-0.00680061;-0.0112064;0.22235
0.170658;-0.00737794;-0.0113927;0.222382
0.171157;-0.00786837;-0.0116576;0.22235
0.171656;-0.00829673;-0.0118605;0.222445
0.172155;-0.00882564;-0.0116079;0.22235
0.172654;-0.00931418;-0.0123904;0.22235
0.173153;-0.00978985;-0.0123366;0.22235
0.173652;-0.0102201;-0.0126429;0.22235
0.174151;-0.0107353;-0.0124359;0.22235
0.17465;-0.011208;-0.0128706;0.222986
0.175149;-0.0117025;-0.0130652;0.22235
0.175648;-0.0122136;-0.0141167;0.222477
0.176147;-0.0127475;-0.0143899;0.22235
0.176646;-0.0132794;-0.0145928;0.22235
0.177145;-0.0137483;-0.0144893;0.22235
0.177644;-0.0142555;-0.0148494;0.222604
0.178143;-0.014748;-0.015342;0.22235
0.178642;-0.0151337;-0.0158637;0.22235
0.179141;-0.01572;-0.0157146;0.22235
0.17964;-0.0161098;-0.0160789;0.22235
0.180139;-0.0165421;-0.0164432;0.22235
0.180638;-0.0170464;-0.0164929;0.22235
0.181137;-0.0175585;-0.0165426;0.22235
0.181636;-0.0179493;-0.0165426;0.22235
0.182135;-0.0184725;-0.016613;0.22235
0.182634;-0.0189816;-0.0173706;0.22235
0.183133;-0.0194534;-0.0171305;0.22235
0.183632;-0.0199726;-0.0177514;0.22235
0.184131;-0.0204461;-0.0183227;0.22235
0.18463;-0.0208864;-0.0185007;0.22235
0.185129;-0.0213738;-0.0187243;0.22235
0.185628;-0.0218188;-0.0190099;0.22235
0.186127;-0.0223569;-0.0194405;0.22235
0.186626;-0.0227555;-0.0203222;0.22235
0.187125;-0.0232755;-0.0200821;0.22235
0.187624;-0.0237345;-0.0203926;0.22235
0.188123;-0.0242219;-0.0204505;0.22235
0.188622;-0.0247085;-0.0204464;0.22235
0.189121;-0.0252365;-0.0208645;0.22235
0.18962;-0.0256747;-0.0207942;0.22235
0.190119;-0.0260951;-0.0209307;0.22235
0.190618;-0.0267031;-0.0209059;0.22235
0.191117;-0.0272143;-0.0210674;0.22235
0.191616;-0.0275932;-0.0217505;0.22235
0.192115;-0.0281458;-0.0220983;0.22235
0.192614;-0.0286254;-0.0222349;0.22235
0.193113;-0.0290754;-0.0226737;0.22235
0.193612;-0.0295335;-0.0227234;0.22235
0.194111;-0.0300298;-0.0229262;0.222509
0.19461;-0.0304599;-0.023928;0.22235
0.195109;-0.0308984;-0.0243419;0.22235
0.195608;-0.0314261;-0.0245531;0.22235
0.196107;-0.0320007;-0.0245779;0.22235
0.196606;-0.0325502;-0.0247973;0.222477
0.197105;-0.0330545;-0.0248801;0.222509
0.197604;-0.0335264;-0.0250002;0.22235
0.198103;-0.0339673;-0.0248635;0.22235
0.198602;-0.034383;-0.024789;0.222477
0.199101;-0.0349582;-0.0254349;0.22235
0.1996;-0.03534;-0.0256833;0.22235
0.200099;-0.0358188;-0.0252859;0.22235
0.200598;-0.0364059;-0.0263665;0.22235
0.201097;-0.0368759;-0.0262713;0.22235
0.201596;-0.037315;-0.0268012;0.22235
0.202095;-0.0377838;-0.026855;0.222445
0.202594;-0.0383315;-0.0270744;0.22235
0.203093;-0.0387607;-0.0270247;0.22235
0.203592;-0.0392749;-0.0269626;0.22235
0.204091;-0.0398689;-0.0276166;0.222668
0.20459;-0.0403202;-0.0276291;0.22235
0.205089;-0.040754;-0.0279975;0.222477
0.205588;-0.0411971;-0.028341;0.22235
0.206087;-0.0417244;-0.0288626;0.22235
0.206586;-0.0421586;-0.0287799;0.22235
0.207085;-0.0427556;-0.0291897;0.22235
0.207584;-0.0432994;-0.0292187;0.22235
0.208083;-0.0437365;-0.0289372;0.22235
0.208582;-0.0441341;-0.0295582;0.222382
0.209081;-0.0447668;-0.0303117;0.22235
0.20958;-0.0452457;-0.030113;0.22235
0.210079;-0.0457736;-0.0310072;0.22235
0.210578;-0.0462696;-0.0310982;0.22235
0.211077;-0.0467071;-0.0309865;0.22235
0.211576;-0.0471385;-0.0313342;0.22235
0.212075;-0.0476465;-0.031359;0.22235
0.212574;-0.0481301;-0.0317191;0.22235
0.213073;-0.048613;-0.031835;0.22235
0.213572;-0.0488616;-0.0326133;0.22235
0.214071;-0.0485012;-0.0321622;0.22235
0.21457;-0.0479622;-0.0315701;0.22235
0.215069;-0.0475224;-0.0313756;0.22235
0.215568;-0.0470545;-0.0311976;0.22235
0.216067;-0.0466261;-0.0309865;0.22235
0.216566;-0.0461081;-0.0310072;0.22235
0.217065;-0.0456364;-0.0309865;0.22235
0.217564;-0.0451853;-0.0309534;0.22235
0.218063;-0.0446373;-0.0309865;0.22235
0.218562;-0.0441719;-0.0309368;0.22235
0.219061;-0.0436822;-0.0306014;0.22235
0.21956;-0.0431808;-0.0303862;0.22235
0.220059;-0.0426107;-0.0295374;0.22235
0.220558;-0.0422079;-0.0296078;0.22235
0.221057;-0.0416443;-0.028991;0.22235
0.221556;-0.0411053;-0.0290324;0.22235
0.222055;-0.0406419;-0.0284073;0.22235
0.222554;-0.0402292;-0.0283618;0.22235
0.223053;-0.0397356;-0.0276415;0.22235
0.223552;-0.0392879;-0.0274966;0.22235
0.224051;-0.0387834;-0.027865;0.22235
0.22455;-0.03822;-0.0273269;0.22235
0.225049;-0.0376644;-0.0268509;0.22235
0.225548;-0.0372705;-0.026855;0.22235
0.226047;-0.0367306;-0.0268633;0.22235
0.226546;-0.0361898;-0.026532;0.22235
0.227045;-0.0357832;-0.0263043;0.22235
0.227544;-0.0352197;-0.0252568;0.22235
0.228043;-0.0347688;-0.0248884;0.22235
0.228542;-0.0343148;-0.0248842;0.22235
0.229041;-0.0338746;-0.0247518;0.22235
0.22954;-0.033401;-0.0248222;0.22235
0.230039;-0.0329084;-0.0244827;0.22235
0.230538;-0.0323619;-0.0240522;0.22235
0.231037;-0.0318071;-0.0232491;0.22235
0.231536;-0.0312289;-0.0230215;0.22235
0.232035;-0.0307797;-0.0231043;0.22235
0.232534;-0.0303604;-0.0228021;0.22235
0.233033;-0.029944;-0.0227234;0.22235
0.233532;-0.0294268;-0.0226448;0.222382
0.234031;-0.0289264;-0.0227276;0.22235
0.23453;-0.0284161;-0.0224792;0.222413
0.235029;-0.0279435;-0.0222308;0.222477
0.235528;-0.0274561;-0.0218581;0.22235
0.236027;-0.0269567;-0.0218002;0.22235
0.236526;-0.0264198;-0.0207031;0.22235
0.237025;-0.0260279;-0.0206368;0.22235
0.237524;-0.0254764;-0.0205706;0.22235
0.238023;-0.0250203;-0.0206161;0.22235
0.238522;-0.0245081;-0.0204423;0.22235
0.239021;-0.0240325;-0.0200614;0.22235
0.23952;-0.0235588;-0.0200324;0.22235
0.240019;-0.0230534;-0.0194198;0.22235
0.240518;-0.0225749;-0.0190844;0.22235
0.241017;-0.0221002;-0.018716;0.22235
0.241516;-0.0215831;-0.0185711;0.22235
0.242015;-0.021218;-0.0185049;0.22235
0.242514;-0.0208092;-0.0183476;0.22235
0.243013;-0.0202884;-0.0181034;0.22235
0.243512;-0.0197623;-0.017027;0.22235
0.244011;-0.0193498;-0.0169525;0.22235
0.24451;-0.0188336;-0.01682;0.22235
0.245009;-0.0182385;-0.0167993;0.22235
0.245508;-0.0178319;-0.0164971;0.22235
0.246007;-0.0174027;-0.016526;0.22235
0.246506;-0.0169398;-0.016526;0.22235
0.247005;-0.0165046;-0.0163894;0.22235
0.247504;-0.0160723;-0.0163687;0.22235
0.248003;-0.0156054;-0.0161866;0.22235
0.248502;-0.0151161;-0.0149778;0.22235
0.249001;-0.0146602;-0.0143775;0.22235
0.2495;-0.0140857;-0.0145183;0.22235
0.249999;-0.0136624;-0.014452;0.22235
0.250498;-0.013156;-0.0141829;0.22235
0.250997;-0.0125985;-0.014096;0.22235
0.251496;-0.0120824;-0.013947;0.22235
0.251995;-0.0116373;-0.0131769;0.22235
0.252494;-0.0110639;-0.0126553;0.22235
0.252993;-0.0105112;-0.012647;0.22235
0.253492;-0.0100484;-0.0125146;0.22235
0.253991;-0.00960634;-0.0124483;0.22235
0.25449;-0.00913157;-0.0122206;0.22235
0.254989;-0.00868848;-0.0121171;0.22235
0.255488;-0.00824736;-0.0112685;0.22235
0.255987;-0.00773616;-0.0115748;0.22235
0.256486;-0.0072526;-0.0111153;0.22235
0.256985;-0.00669203;-0.0105233;0.22235
0.257484;-0.00616309;-0.0102749;0.22235
