t;vds;corrente;vg
0.000499;0.0184527;0.00228624;0.714717
0.000998;0.0189244;0.0025998;0.725199
0.001497;0.0193389;0.00283991;0.726729
0.001996;0.0197653;0.00293098;0.723958
0.002495;0.02031;0.00398662;0.724215
0.002994;0.0208804;0.00413151;0.725297
0.003493;0.0213827;0.00399489;0.728608
0.003992;0.0219096;0.00415635;0.729244
0.004491;0.0223302;0.00449583;0.727621
0.00499;0.022791;0.00478976;0.72864
0.005489;0.0232696;0.00534861;0.726348
0.005988;0.0237532;0.00532792;0.729563
0.006487;0.0242534;0.00567567;0.729595
0.006986;0.0246384;0.00540658;0.728289
0.007485;0.0251566;0.00581639;0.730582
0.007984;0.0256273;0.00605238;0.728351
0.008483;0.0261385;0.00614344;0.729054
0.008982;0.0266695;0.00627591;0.730168
0.009481;0.0271482;0.00636285;0.728481
0.00998;0.0277214;0.00648289;0.727015
0.010479;0.0281507;0.00661951;0.727843
0.010978;0.028656;0.00725289;0.727843
0.011477;0.0290873;0.00716182;0.724948
0.011976;0.0295197;0.00777451;0.725359
0.012475;0.0300702;0.00826302;0.726889
0.012974;0.0305982;0.00826302;0.722495
0.013473;0.0310385;0.00827958;0.724308
0.013972;0.0316177;0.00844518;0.728767
0.014471;0.0321191;0.00861906;0.728194
0.01497;0.0325236;0.00880534;0.728385
0.015469;0.0330989;0.00929384;0.727303
0.015968;0.0335846;0.00966228;0.729436
0.016467;0.034068;0.00938079;0.72743
0.016966;0.0345606;0.00989825;0.726093
0.017465;0.035051;0.0101508;0.724915
0.017964;0.0355314;0.0103288;0.722844
0.018463;0.0359876;0.0105647;0.724786
0.018962;0.0364987;0.0107013;0.723418
0.019461;0.0370091;0.011343;0.728067
0.01996;0.0374816;0.011786;0.729467
0.020459;0.0379753;0.0121047;0.729308
0.020958;0.0384548;0.0120592;0.728258
0.021457;0.0388869;0.0116038;0.726251
0.021956;0.0393933;0.0121585;0.728003
0.022455;0.0399193;0.012378;0.729881
0.022954;0.0404453;0.0128333;0.728703
0.023453;0.0410195;0.0133922;0.729881
0.023952;0.0414568;0.0138973;0.729054
0.024451;0.0418557;0.0143444;0.728131
0.02495;0.0423618;0.0143899;0.728861
0.025449;0.0428572;0.0144354;0.722048
0.025948;0.0433191;0.0144893;0.71963
0.026447;0.0438342;0.0153876;0.722367
0.026946;0.0443078;0.0152965;0.722242
0.027445;0.0447638;0.0149281;0.721382
0.027944;0.0452062;0.0151144;0.724056
0.028443;0.0457125;0.0152427;0.725963
0.028942;0.0461492;0.0160706;0.725424
0.029441;0.0466608;0.0163522;0.726442
0.02994;0.0471395;0.0165302;0.725935
0.030439;0.047602;0.0167248;0.728703
0.030938;0.0480511;0.016555;0.720265
0.031437;0.0481487;0.0166875;0.717434
0.031936;0.0476359;0.0166213;0.719917
0.032435;0.0471926;0.0167993;0.721379
0.032934;0.0467564;0.0165509;0.722718
0.033433;0.0462677;0.0164101;0.722844
0.033932;0.0457924;0.0160168;0.722591
0.034431;0.0453809;0.0159175;0.725424
0.03493;0.0449236;0.0153752;0.725933
0.035429;0.0444391;0.0148163;0.720489
0.035928;0.04393;0.0144893;0.719536
0.036427;0.0435194;0.0144437;0.723673
0.036926;0.0430279;0.0142906;0.726188
0.037425;0.0425396;0.0135619;0.724407
0.037924;0.0420205;0.0134543;0.725901
0.038423;0.0415445;0.0129907;0.727494
0.038922;0.0410461;0.012556;0.724309
0.039421;0.0405926;0.0124235;0.7252
0.03992;0.0400228;0.0118936;0.726125
0.040419;0.0395827;0.0117404;0.726158
0.040918;0.0390479;0.0112395;0.723195
0.041417;0.0386324;0.010722;0.725838
0.041916;0.0381025;0.0103619;0.725361
0.042415;0.0377276;0.0100556;0.727428
0.042914;0.0372548;0.0102791;0.726539
0.043413;0.0367227;0.0100266;0.725329
0.043912;0.0362066;0.00988166;0.730168
0.044411;0.035731;0.00985268;0.729372
0.04491;0.0351664;0.00966231;0.727493
0.045409;0.0346879;0.00945533;0.729339
0.045908;0.0341825;0.00931041;0.729658
0.046407;0.0336724;0.00842033;0.728417
0.046906;0.0331501;0.00827544;0.72533
0.047405;0.0328186;0.00834582;0.728513
0.047904;0.0323461;0.00833754;0.727493
0.048403;0.0318417;0.00837066;0.726953
0.048902;0.0313985;0.00788629;0.726093
0.049401;0.0309269;0.0080436;0.730582
0.0499;0.0303347;0.0077828;0.726507
0.050399;0.0297832;0.00740193;0.729117
0.050898;0.0292807;0.0070542;0.730072
0.051397;0.0287834;0.00655741;0.728927
0.051896;0.0282966;0.00647048;0.728131
0.052395;0.0277788;0.00640424;0.72555
0.052894;0.0273693;0.00630489;0.729054
0.053393;0.0268332;0.00619726;0.724883
0.053892;0.026329;0.00615172;0.727972
0.054391;0.0258789;0.00590334;0.727781
0.05489;0.0254004;0.00575017;0.730167
0.055389;0.0249562;0.00510439;0.729244
0.055888;0.0244588;0.00427227;0.728672
0.056387;0.0239427;0.00430125;0.727047
0.056886;0.0234689;0.00429296;0.728926
0.057385;0.0230317;0.00413565;0.728417
0.057884;0.0224761;0.00426813;0.72762
0.058383;0.0220134;0.00406113;0.728033
0.058882;0.021517;0.00353953;0.72762
0.059381;0.0210274;0.00329114;0.726251
0.05988;0.0204975;0.00280679;0.724786
0.060379;0.0200386;0.00239281;0.72603
0.060878;0.0196024;0.00213613;0.728416
0.061377;0.0191248;0.00199952;0.726601
0.061876;0.0187112;0.00188774;0.72606
0.062375;0.0182424;0.00166833;0.726476
0.062874;0.0177578;0.00176769;0.728639
0.063373;0.0172596;0.00195398;0.728895
0.063872;0.0167938;0.00182565;0.72883
0.064371;0.0162657;0.00123366;0.722333
0.06487;0.0158018;0.000724465;0.721316
0.065369;0.0153558;0.000182151;0.72275
0.065868;0.0148852;0;0.725138
0.066367;0.0143808;-7.86562e-05;0.723706
0.066866;0.0139417;-0.000687207;0.721348
0.067365;0.0135054;-0.000480217;0.724787
0.067864;0.0129745;-0.00141581;0.71928
0.068363;0.0125945;-0.000972851;0.727366
0.068862;0.0121327;-0.00122952;0.727653
0.069361;0.0115367;-0.00199538;0.725647
0.06986;0.0109761;-0.00194156;0.727335
0.070359;0.0105082;-0.00234727;0.72536
0.070858;0.0101086;-0.0024756;0.721349
0.071357;0.00957278;-0.00238038;0.724247
0.071856;0.00899241;-0.00253356;0.725201
0.072355;0.00855133;-0.0027571;0.728512
0.072854;0.00799863;-0.00362232;0.725265
0.073353;0.00750329;-0.00396178;0.72552
0.073852;0.00701673;-0.00413151;0.728226
0.074351;0.00655682;-0.00412323;0.725327
0.07485;0.00610092;-0.00448341;0.726282
0.075349;0.00567061;-0.00429297;0.729913
0.075848;0.00515841;-0.00501743;0.726762
0.076347;0.00465412;-0.00573776;0.723229
0.076846;0.00412909;-0.00584952;0.724374
0.077345;0.00359521;-0.00587023;0.723292
0.077844;0.00306329;-0.00603994;0.725807
0.078343;0.00250569;-0.00616;0.724374
0.078842;0.00199645;-0.00625935;0.719692
0.079341;0.00156125;-0.00644151;0.720553
0.07984;0.00116649;-0.00635457;0.724216
0.080339;0.000698709;-0.00685549;0.724914
0.080838;0.000207244;-0.00796495;0.720042
0.081337;-0.000180599;-0.00784903;0.723578
0.081836;-0.00073917;-0.00826302;0.720999
0.082335;-0.00121682;-0.00844104;0.721541
0.082834;-0.00170828;-0.00831684;0.726985
0.083333;-0.00224022;-0.00855695;0.72864
0.083832;-0.00273762;-0.00909101;0.727398
0.084331;-0.00316888;-0.00920691;0.726665
0.08483;-0.00364454;-0.00922347;0.724055
0.085329;-0.00411625;-0.00960847;0.724629
0.085828;-0.00464029;-0.00999346;0.724215
0.086327;-0.00518211;-0.0103288;0.720934
0.086826;-0.00566174;-0.0103453;0.724343
0.087325;-0.00607226;-0.0103412;0.728384
0.087824;-0.00654401;-0.0111029;0.721508
0.088323;-0.00707302;-0.0108172;0.725647
0.088822;-0.00759994;-0.0112851;0.727334
0.089321;-0.00803813;-0.0116328;0.727206
0.08982;-0.00855723;-0.0119019;0.727812
0.090319;-0.00899638;-0.0122496;0.727843
0.090818;-0.00950956;-0.0123324;0.725933
0.091317;-0.0100247;-0.0126636;0.724788
0.091816;-0.0105655;-0.0127257;0.723959
0.092315;-0.0110797;-0.012854;0.71982
0.092814;-0.0115752;-0.0127174;0.725393
0.093313;-0.0121573;-0.0138642;0.723356
0.093812;-0.0125185;-0.0139304;0.725009
0.094311;-0.0129795;-0.013831;0.722877
0.09481;-0.0135834;-0.0139428;0.723353
0.095309;-0.014067;-0.0144106;0.726826
0.095808;-0.0144835;-0.0145845;0.722304
0.096307;-0.0150321;-0.01463;0.7238
0.096806;-0.0155196;-0.0148619;0.726285
0.097305;-0.0159924;-0.0157933;0.727715
0.097804;-0.0164484;-0.0158264;0.723067
0.098303;-0.0169428;-0.0161162;0.72813
0.098802;-0.017373;-0.0163232;0.727175
0.099301;-0.0178358;-0.0164515;0.723387
0.0998;-0.0183234;-0.0165178;0.718294
0.100299;-0.0187616;-0.016526;0.720841
0.100798;-0.019103;-0.0165053;0.722367
0.101297;-0.0196567;-0.0170559;0.721634
0.101796;-0.0202508;-0.0178053;0.718387
0.102295;-0.0206978;-0.018182;0.720266
0.102794;-0.0212436;-0.0180785;0.719916
0.103293;-0.0217241;-0.0184469;0.718483
0.103792;-0.0221613;-0.0185918;0.720077
0.104291;-0.0225967;-0.018716;0.720267
0.10479;-0.0231412;-0.0186291;0.7231
0.105289;-0.0235934;-0.0188775;0.722495
0.105788;-0.0240472;-0.0195646;0.724852
0.106287;-0.0245465;-0.0204381;0.72501
0.106786;-0.0249514;-0.0205126;0.724341
0.107285;-0.0254447;-0.0206327;0.72692
0.107784;-0.0259264;-0.0206782;0.729181
0.108283;-0.0263941;-0.0208935;0.730104
0.108782;-0.0268966;-0.0210343;0.729818
0.109281;-0.0274254;-0.0213199;0.729753
0.10978;-0.0279888;-0.0217464;0.728925
0.110279;-0.0284873;-0.0216428;0.728512
0.110778;-0.0289451;-0.0214027;0.729213
0.111277;-0.0294368;-0.0218044;0.727939
0.111776;-0.0299311;-0.0222308;0.72762
0.112275;-0.0303573;-0.0227234;0.727938
0.112774;-0.0307305;-0.0227234;0.728385
0.113273;-0.0312604;-0.0227938;0.729977
0.113772;-0.0317678;-0.0231415;0.730422
0.114271;-0.032272;-0.0231953;0.730359
0.11477;-0.0328205;-0.0237666;0.727525
0.115269;-0.0333507;-0.0239404;0.729531
0.115768;-0.0338016;-0.0244661;0.728417
0.116267;-0.0343079;-0.0244868;0.728958
0.116766;-0.0347796;-0.0247807;0.727174
0.117265;-0.0351861;-0.0247932;0.729754
0.117764;-0.0357112;-0.0248967;0.728099
0.118263;-0.0361908;-0.0257413;0.727111
0.118762;-0.0367071;-0.0262132;0.728672
0.119261;-0.0372074;-0.0266935;0.728989
0.11976;-0.037686;-0.0265238;0.728671
0.120259;-0.0380996;-0.0268343;0.728417
0.120758;-0.0386177;-0.0268302;0.729977
0.121257;-0.0390991;-0.0269668;0.727972
0.121756;-0.0396282;-0.0271654;0.727526
0.122255;-0.0401445;-0.0276373;0.730104
0.122754;-0.0405824;-0.0285977;0.728703
0.123253;-0.0410965;-0.0285811;0.728512
0.123752;-0.0415605;-0.0285811;0.728417
0.124251;-0.0421528;-0.028962;0.729627
0.12475;-0.0426963;-0.0290034;0.728193
0.125249;-0.0432125;-0.0290158;0.72829
0.125748;-0.0436507;-0.0294422;0.727272
0.126247;-0.0440738;-0.029877;0.72625
0.126746;-0.0445802;-0.0296534;0.726539
0.127245;-0.0450759;-0.0300301;0.727271
0.127744;-0.0455616;-0.0307629;0.727269
0.128243;-0.0460101;-0.0308664;0.728735
0.128742;-0.0465126;-0.0309616;0.728767
0.129241;-0.0470586;-0.0309948;0.729181
0.12974;-0.0475655;-0.0310196;0.728925
0.130239;-0.048062;-0.0309865;0.725964
0.130738;-0.0485102;-0.0314915;0.72517
0.131237;-0.0488961;-0.0319469;0.723895
0.131736;-0.048601;-0.031566;0.725647
0.132235;-0.0480618;-0.0311645;0.719916
0.132734;-0.0475412;-0.0311396;0.722911
0.133233;-0.047015;-0.0310279;0.727365
0.133732;-0.046546;-0.0310279;0.726825
0.134231;-0.046116;-0.0309741;0.726252
0.13473;-0.0457095;-0.0305062;0.724596
0.135229;-0.0452545;-0.0306636;0.720425
0.135728;-0.0447834;-0.0300425;0.721668
0.136227;-0.0442862;-0.0298563;0.727526
0.136726;-0.0437582;-0.0295043;0.728895
0.137225;-0.0432835;-0.0289785;0.729754
0.137724;-0.042803;-0.0290944;0.730104
0.138223;-0.0422355;-0.0290199;0.728385
0.138722;-0.0416946;-0.0288792;0.72953
0.139221;-0.0411477;-0.0283494;0.729276
0.13972;-0.0406517;-0.0278402;0.729626
0.140219;-0.040163;-0.0275711;0.728512
0.140718;-0.0396784;-0.0276415;0.725933
0.141217;-0.0392809;-0.027004;0.729053
0.141716;-0.0387705;-0.0269005;0.728257
0.142215;-0.0382939;-0.026855;0.727303
0.142714;-0.0378263;-0.0267432;0.723674
0.143213;-0.0373376;-0.0266645;0.72759
0.143712;-0.0368254;-0.0264906;0.728353
0.144211;-0.0363092;-0.0263333;0.72934
0.14471;-0.0358544;-0.0257868;0.726985
0.145209;-0.0353203;-0.0250374;0.729944
0.145708;-0.034822;-0.0249256;0.726666
0.146207;-0.0343632;-0.0249091;0.726187
0.146706;-0.0338795;-0.0247766;0.728703
0.147205;-0.0334266;-0.024789;0.726697
0.147704;-0.0329675;-0.0247642;0.725805
0.148203;-0.0325345;-0.024371;0.721032
0.148702;-0.0320086;-0.0235182;0.721508
0.149201;-0.0314626;-0.0231788;0.71966
0.1497;-0.0310029;-0.0231125;0.718612
0.150199;-0.030461;-0.0229552;0.718387
0.150698;-0.0299825;-0.0229428;0.720523
0.151197;-0.0295443;-0.0230256;0.722242
0.151696;-0.0289866;-0.0227979;0.722911
0.152195;-0.0284754;-0.0226365;0.720361
0.152694;-0.0280885;-0.0223425;0.721382
0.153193;-0.0275321;-0.0218209;0.721029
0.153692;-0.0270456;-0.0215518;0.719979
0.154191;-0.0265184;-0.0209763;0.720362
0.15469;-0.0261129;-0.0207196;0.717974
0.155189;-0.0256076;-0.0205913;0.71944
0.155688;-0.0251063;-0.0205582;0.722526
0.156187;-0.0247005;-0.0202642;0.719789
0.156686;-0.024147;-0.0192501;0.72638
0.157185;-0.0236694;-0.0193577;0.725901
0.157684;-0.023158;-0.0192583;0.723099
0.158183;-0.022727;-0.0187408;0.725455
0.158682;-0.0221909;-0.0189892;0.725075
0.159181;-0.0216492;-0.0186249;0.725712
0.15968;-0.0211873;-0.0185297;0.726921
0.160179;-0.0207461;-0.0183641;0.725649
0.160678;-0.0202785;-0.0177101;0.728512
0.161177;-0.0198511;-0.0178135;0.726125
0.161676;-0.0194209;-0.0170187;0.72485
0.162175;-0.0189363;-0.0168697;0.723321
0.162674;-0.0185148;-0.0164433;0.723098
0.163173;-0.0180391;-0.0165219;0.721348
0.163672;-0.0175546;-0.016257;0.722876
0.164171;-0.0170415;-0.0161783;0.725044
0.16467;-0.0166033;-0.0162156;0.72657
0.165169;-0.016018;-0.015785;0.72434
0.165668;-0.0155423;-0.0151227;0.725106
0.166167;-0.0151664;-0.0147832;0.720807
0.166666;-0.0146019;-0.014808;0.724597
0.167165;-0.0142348;-0.0144686;0.724118
0.167664;-0.0137621;-0.0144396;0.721477
0.168163;-0.0132784;-0.0142699;0.719501
0.168662;-0.0127307;-0.0135123;0.720014
0.169161;-0.0122383;-0.0128209;0.722303
0.16966;-0.0117242;-0.0128209;0.718739
0.170159;-0.0112741;-0.0126636;0.71791
0.170658;-0.010678;-0.012349;0.724467
0.171157;-0.010224;-0.0124235;0.724597
0.171656;-0.00967345;-0.0123614;0.723449
0.172155;-0.00915921;-0.0121792;0.725201
0.172654;-0.00861448;-0.0119764;0.726475
0.173153;-0.00816346;-0.0110988;0.726856
0.173652;-0.00772432;-0.0118025;0.72224
0.174151;-0.00727333;-0.0110822;0.727016
0.17465;-0.00677394;-0.0105813;0.72864
0.175149;-0.00622922;-0.0104944;0.727462
0.175648;-0.00565778;-0.0102874;0.727527
0.176147;-0.00525709;-0.0103288;0.725041
0.176646;-0.00479231;-0.00991064;0.726793
0.177145;-0.00417844;-0.00976163;0.725517
0.177644;-0.00379553;-0.00899991;0.727938
0.178143;-0.00325771;-0.00855696;0.728894
0.178642;-0.00266753;-0.00826302;0.728958
0.179141;-0.00224219;-0.00826302;0.72829
0.17964;-0.00182474;-0.00826716;0.72883
0.180139;-0.00137966;-0.0081678;0.727812
0.180638;-0.000885228;-0.00753027;0.728735
0.181137;-0.000427317;-0.00755926;0.728512
0.181636;4.53965e-05;-0.00680166;0.72708
0.182135;0.000605942;-0.00641667;0.727908
0.182634;0.00104412;-0.00707902;0.726093
0.183133;0.00145861;-0.00651187;0.725901
0.183632;0.00197869;-0.00628005;0.724086
0.184131;0.00248892;-0.00628005;0.725902
0.18463;0.00299716;-0.0060441;0.72396
0.185129;0.00352316;-0.00599441;0.724469
0.185628;0.00403237;-0.00582468;0.725041
0.186127;0.00449522;-0.00449168;0.727175
0.186626;0.00501731;-0.00424329;0.725582
0.187125;0.00545548;-0.00426399;0.725775
0.187624;0.00593905;-0.00411495;0.724023
0.188123;0.00639399;-0.00413151;0.724404
0.188622;0.0069526;-0.00398662;0.722527
0.189121;0.00743616;-0.00396178;0.725615
0.18962;0.00787922;-0.00324146;0.72622
0.190119;0.0084181;-0.0027861;0.72603
0.190618;0.00888881;-0.00289373;0.722782
0.191117;0.00944047;-0.0026412;0.723038
0.191616;0.00994579;-0.00230587;0.726634
0.192115;0.0104106;-0.00206576;0.72552
0.192614;0.0108863;-0.00209473;0.723577
0.193113;0.0114035;-0.00190844;0.726092
0.193612;0.011885;-0.00182151;0.718292
0.194111;0.0123389;-0.00132887;0.718929
0.19461;0.012785;-0.00108049;0.72272
0.195109;0.0133189;-0.000103495;0.723576
0.195608;0.013769;-0.000372582;0.717242
0.196107;0.0142377;-0.000219409;0.716669
0.196606;0.0147273;2.0699e-05;0.723197
0.197105;0.0152492;0;0.720744
0.197604;0.0157792;2.48388e-05;0.718006
0.198103;0.0162204;0.000591992;0.721762
0.198602;0.0167316;0.000823819;0.718579
0.199101;0.0171984;0.00189188;0.725552
0.1996;0.0174944;0.00180909;0.722656
0.200099;0.0180677;0.00204092;0.720555
0.200598;0.0185366;0.0019871;0.722177
0.201097;0.018953;0.00201608;0.719311
0.201596;0.0193774;0.00227689;0.719152
0.202095;0.0199203;0.00274054;0.72119
0.202594;0.0204313;0.00305517;0.718929
0.203093;0.0208883;0.00360576;0.720712
0.203592;0.0214676;0.00396592;0.723481
0.204091;0.0219925;0.0039535;0.72294
0.20459;0.0224417;0.00413151;0.721509
0.205089;0.0229143;0.00427226;0.7238
0.205588;0.0233723;0.00423501;0.722368
0.206087;0.0237818;0.00464072;0.722526
0.206586;0.024289;0.00515405;0.723641
0.207085;0.0248112;0.00551834;0.723802
0.207584;0.025275;0.0058164;0.724056
0.208083;0.0257675;0.00625521;0.726921
0.208582;0.0261987;0.00618484;0.725265
0.209081;0.0266981;0.00598614;0.722082
0.20958;0.0272281;0.00620967;0.727683
0.210079;0.0277244;0.00648704;0.725073
0.210578;0.0282781;0.00678924;0.727875
0.211077;0.0288128;0.00709146;0.720331
0.211576;0.0292226;0.00790699;0.719152
0.212075;0.0297702;0.00791114;0.719661
0.212574;0.0301975;0.0082299;0.71686
0.213073;0.0306881;0.00818851;0.719916
0.213572;0.0312051;0.00827958;0.717656
0.214071;0.0317115;0.00826716;0.71632
0.21457;0.0321812;0.00879706;0.721795
0.215069;0.0326972;0.00869358;0.716224
0.215568;0.0331335;0.00883432;0.715555
0.216067;0.0336487;0.00962088;0.719375
0.216566;0.0341796;0.00984028;0.717402
0.217065;0.0346819;0.0102667;0.717975
0.217564;0.0352117;0.0104033;0.719439
0.218063;0.0357369;0.0109456;0.72208
0.218562;0.0362006;0.0104364;0.718834
0.219061;0.0366212;0.0111153;0.722305
0.21956;0.0370328;0.0116907;0.721859
0.220059;0.037609;0.0119888;0.721095
0.220558;0.0380049;0.0120799;0.72036
0.221057;0.0385338;0.0123821;0.722525
0.221556;0.0390309;0.0123945;0.718515
0.222055;0.0394822;0.0124856;0.720204
0.222554;0.0399913;0.0135537;0.722462
0.223053;0.0404414;0.0140091;0.719758
0.223552;0.040988;0.014245;0.722558
0.224051;0.0414983;0.0143651;0.717337
0.22455;0.0419623;0.0142699;0.719629
0.225049;0.0424643;0.0145762;0.720841
0.225548;0.0429224;0.0146466;0.72431
0.226047;0.0434574;0.0150357;0.724119
0.226546;0.0438933;0.0156981;0.727048
0.227045;0.0443365;0.016021;0.728003
0.227544;0.0448142;0.0160541;0.726697
0.228043;0.0452299;0.0160458;0.725489
0.228542;0.0457194;0.0159051;0.726061
0.229041;0.0461798;0.0165385;0.725838
0.22954;0.046716;0.016613;0.72208
0.230039;0.0472559;0.0168738;0.727717
0.230538;0.0477975;0.0172133;0.726124
0.231037;0.0482791;0.0175983;0.72603
0.231536;0.0481832;0.0173747;0.730231
0.232035;0.0476752;0.0170187;0.729754
0.232534;0.0471423;0.0167413;0.730295
0.233033;0.0466458;0.0169814;0.730327
0.233532;0.0462342;0.0165426;0.730168
0.234031;0.045748;0.016406;0.728799
0.23453;0.0453108;0.0158802;0.729913
0.235029;0.0448782;0.0155242;0.729117
0.235528;0.0444332;0.0149943;0.726888
0.236027;0.0439566;0.0150274;0.728288
0.236526;0.0434898;0.0147128;0.727716
0.237025;0.0430013;0.014659;0.724789
0.237524;0.0425415;0.0144727;0.727494
0.238023;0.0419761;0.0144106;0.726283
0.238522;0.0415198;0.0139635;0.727971
0.239021;0.0410688;0.0131562;0.723991
0.23952;0.0405215;0.0125974;0.725776
0.240019;0.0399261;0.0125021;0.725265
0.240518;0.0394742;0.0122248;0.722748
0.241017;0.0390045;0.0120675;0.721634
0.241516;0.0384538;0.0120426;0.722241
0.242015;0.0379595;0.0112478;0.717689
0.242514;0.0375193;0.0110077;0.720776
0.243013;0.0370683;0.0105482;0.721189
0.243512;0.0367227;0.0104281;0.718962
0.244011;0.0361829;0.0103329;0.720903
0.24451;0.0357023;0.0103867;0.719503
0.245009;0.0351319;0.0103122;0.721986
0.245508;0.0346149;0.00989411;0.7224
0.246007;0.0340344;0.00991066;0.720459
0.246506;0.0335303;0.0097368;0.725266
0.247005;0.0330514;0.00872253;0.723642
0.247504;0.0327013;0.00925657;0.728767
0.248003;0.0322553;0.00832098;0.725806
0.248502;0.0317212;0.00825474;0.72364
0.249001;0.031225;0.00827958;0.724755
0.2495;0.030757;0.00826302;0.728354
0.249999;0.0302874;0.00820506;0.726762
0.250498;0.0298444;0.00794839;0.726633
0.250997;0.0292698;0.00780349;0.728035
0.251496;0.0287094;0.0072736;0.728672
0.251995;0.0282227;0.0066485;0.729181
0.252494;0.0276702;0.00628005;0.726093
0.252993;0.0272716;0.0064622;0.729371
0.253492;0.0266773;0.00619312;0.726443
0.253991;0.026259;0.00619726;0.728544
0.25449;0.0257565;0.00617656;0.728544
0.254989;0.0252011;0.00598199;0.727081
